%frameid,time(us),x(mm),y(mm),z(mm) 
3500243,1952494044,235.625,-275.329,385.149
3500244,1952503602,235.428,-275.28,385.018
3500245,1952513229,234.566,-274.092,385.581
3500246,1952522830,234.194,-273.717,385.77
3500247,1952532535,233.125,-273.589,385.837
3500248,1952542102,232.375,-273.128,385.853
3500249,1952551776,230.042,-272.546,386.024
3500250,1952561324,228.611,-271.299,387.451
3500251,1952571058,227.124,-270.192,388.205
3500252,1952580583,226.317,-269.824,389.209
3500253,1952590224,225.135,-269.22,389.933
3500254,1952599844,224.921,-269.275,390.117
3500255,1952609460,223.385,-268.301,392.654
3500256,1952619201,221.194,-265.649,395.874
3500257,1952628824,219.557,-265.994,396.509
3500258,1952638432,218.343,-265.849,397.448
3500259,1952647989,216.605,-264.652,398.195
3500260,1952657617,214.622,-264.212,399.276
3500261,1952667341,213.138,-263.589,400.171
3500262,1952676972,211.398,-261.671,400.779
3500263,1952686580,209.653,-260.449,401.293
3500264,1952696156,207.507,-259.158,400.452
3500265,1952705838,205.391,-256.859,403.31
3500266,1952715490,203.455,-254.611,403.108
3500267,1952725051,200.662,-251.269,404.951
3500268,1952734694,197.193,-249.228,405.632
3500269,1952763570,186.458,-239.716,405.268
3500270,1952773140,184.038,-237.206,405.32
3500271,1952782830,180.95,-234.168,404.341
3500272,1952792507,175.559,-229.901,400.984
3500273,1952802146,171.494,-226.096,398.858
3500274,1952811765,166.869,-221.057,396.278
3500275,1952821384,162.852,-217.081,393.811
3500276,1952831028,156.02,-210.074,389.163
3500277,1952840653,150.789,-203.945,383.684
3500278,1952850264,145.7,-197.356,377.632
3500279,1952859863,139.523,-190.515,371.84
3500280,1952869534,134.441,-183.838,363.831
3500281,1952879138,127.871,-175.434,355.338
3500282,1952888733,122.096,-167.261,346.92
3500283,1952898409,115.746,-158.915,336.301
3500284,1952907960,109.253,-150.22,325.333
3500285,1952917686,102.814,-141.566,313.516
3500286,1952927304,95.8854,-131.392,301.581
3500287,1952936839,89.3645,-121.609,288.613
3500288,1952946474,82.8086,-112.109,275.059
3500289,1952956178,77.0871,-103.381,261.129
3500290,1952965725,71.7549,-94.0054,247.057
3500291,1952975380,66.6665,-85.1003,232.747
3500292,1952985025,61.2393,-75.6005,218.509
3500293,1952994649,56.4224,-66.6079,204.389
3500294,1953004326,52.1675,-58.0291,190.78
3500295,1953013965,48.0048,-49.1804,177.837
3500296,1953023521,44.7196,-40.3627,165.893
3500297,1953033165,41.1423,-31.9188,154.4
3500298,1953042833,37.7274,-23.2587,143.604
3500299,1953052454,35.0754,-15.0425,134.297
3500300,1953062076,32.4675,-7.2251,126.252
3500301,1953071739,30.1436,-0.0135627,119.568
3500302,1953081321,28.1971,6.98875,114.516
3500303,1953090902,26.3195,12.9487,110.213
3500304,1953100621,24.3382,18.7966,107.452
3500305,1953110255,22.6108,23.6763,106.269
3500306,1953119868,20.1705,28.619,106.194
3500307,1953129513,18.0419,32.9095,107.294
3500308,1953139134,15.3223,37.0248,109.712
3500309,1953148763,12.8039,40.4565,113.427
3500310,1953158332,10.161,43.2575,118.047
3500311,1953168031,7.51524,45.9349,123.954
3500312,1953177624,4.76651,48.1687,130.441
3500313,1953187269,1.95436,49.5007,137.713
3500314,1953196912,-0.756165,50.4318,145.249
3500315,1953206434,-3.49189,50.9431,153.434
3500316,1953216175,-6.15468,50.9149,161.959
3500317,1953225795,-8.72255,50.4622,170.43
3500318,1953235414,-11.0515,49.5119,178.569
3500319,1953245005,-13.0631,48.1468,186.985
3500320,1953254636,-14.8363,46.2053,195.555
3500321,1953264289,-16.754,44.2298,203.948
3500322,1953273864,-18.1293,41.3993,212.178
3500323,1953283516,-19.7606,38.6418,220.072
3500324,1953293192,-20.6481,35.1311,227.641
3500325,1953302765,-21.8834,32.0986,233.753
3500326,1953312453,-22.4295,28.5774,239.598
3500327,1953322054,-23.0232,25.1253,244.333
3500328,1953331669,-23.3225,20.9666,248.767
3500329,1953341295,-24.022,17.6345,252.362
3500330,1953350971,-24.3893,13.862,254.785
3500331,1953360604,-24.8547,9.73834,256.401
3500332,1953370141,-24.5697,5.71349,256.837
3500333,1953379853,-24.5491,1.83568,256.898
3500334,1953389450,-24.2879,-1.41422,255.842
3500335,1953399079,-24.0848,-4.6902,253.861
3500336,1953408624,-23.8834,-7.46514,251.191
3500337,1953418286,-23.5921,-10.3408,247.956
3500338,1953427961,-23.1779,-12.9281,243.752
3500339,1953437572,-22.8916,-15.4108,238.755
3500340,1953447200,-22.2562,-17.9212,233.467
3500341,1953456802,-21.6189,-20.3363,227.654
3500342,1953466439,-20.7698,-22.6548,221.246
3500343,1953476158,-19.7376,-25.06,214.291
3500344,1953485766,-18.7153,-27.4459,207.198
3500345,1953495421,-17.6287,-30.0843,199.892
3500346,1953505033,-16.5943,-32.4371,192.906
3500347,1953514648,-15.2618,-35.0899,185.868
3500348,1953524207,-13.7423,-37.694,179.121
3500349,1953533844,-12.0343,-40.8377,173.229
3500350,1953543503,-10.1803,-44.3168,168.978
3500351,1953553099,-8.12564,-47.6627,165.807
3500352,1953562694,-5.84756,-51.2229,163.853
3500353,1953572369,-3.69897,-54.5317,164.031
3500354,1953582042,-1.98414,-57.7086,165.867
3500355,1953591633,0.0191352,-61.0882,169.329
3500356,1953601256,1.95935,-64.1369,174.042
3500357,1953610897,3.94997,-67.4608,180.409
3500358,1953620488,5.91976,-70.7592,187.949
3500359,1953630131,7.59405,-74.1689,196.829
3500360,1953639738,8.87169,-77.6776,206.001
3500361,1953649466,10.614,-81.3863,215.058
3500362,1953659096,11.837,-85.0071,224.809
3500363,1953668686,12.9238,-88.9643,234.754
3500364,1953678305,13.6647,-93.2991,245.41
3500365,1953687986,14.4076,-98.0368,256.265
3500366,1953697568,15.1324,-102.76,266.527
3500367,1953707166,16.0118,-108.142,277.275
3500368,1953716879,16.521,-113.335,287.537
3500369,1953726499,17.1762,-118.403,297.229
3500370,1953736126,17.8627,-124.605,306.135
3500371,1953745736,18.6975,-130.588,314.049
3500372,1953755382,19.412,-136.073,321.052
3500373,1953765015,19.9747,-141.381,327.59
3500374,1953774605,20.7612,-145.862,332.975
3500375,1953784244,21.5252,-150.501,337.57
3500376,1953793834,22.8154,-154.947,341.404
3500377,1953803520,23.7722,-158.388,344.329
3500378,1953813161,24.2296,-161.142,346.341
3500379,1953822779,24.4096,-162.473,347.134
3500380,1953832356,24.5475,-163.346,347.453
3500381,1953842034,24.8346,-163.664,346.725
3500382,1953851660,24.8853,-163.408,344.821
3500383,1953861252,24.8618,-161.752,340.845
3500384,1953870870,24.5072,-158.462,336.071
3500385,1953880551,23.9545,-154.503,330.675
3500386,1953890115,23.0255,-150.506,324.839
3500387,1953899763,22.649,-145.064,317.88
3500388,1953909388,21.7687,-138.954,310.586
3500389,1953918959,21.1854,-131.969,302.672
3500390,1953928641,19.9048,-124.631,294.354
3500391,1953938302,18.9853,-116.623,285.356
3500392,1953947882,17.1037,-107.528,276
3500393,1953957504,15.6127,-98.9262,265.943
3500394,1953986447,8.75209,-66.7335,227.355
3500395,1953996134,8.15142,-60.6971,218.244
3500396,1954005700,7.77264,-53.7481,207.62
3500397,1954015368,6.63277,-45.1815,196.168
3500398,1954025019,5.85629,-37.9632,184.229
3500399,1954034627,5.3992,-31.8592,172.503
3500400,1954044239,5.16862,-26.9934,161.945
3500401,1954053853,4.53509,-22.619,153.574
3500402,1954063448,3.99368,-19.0136,146.248
3500403,1954073040,3.32653,-15.8074,141.696
3500404,1954082767,2.20766,-13.8633,139.253
3500405,1954092315,1.6692,-13.4875,139.204
3500406,1954102011,0.995087,-13.3531,140.636
3500407,1954111608,0.0461743,-13.9627,145.209
3500408,1954121295,-0.796244,-15.3802,151.058
3500409,1954130863,-1.37794,-16.9893,157.694
3500410,1954140532,-2.50729,-18.3892,165.631
3500411,1954150118,-2.9943,-20.4621,173.644
3500412,1954159706,-3.21346,-22.8845,182.144
3500413,1954169363,-3.38289,-25.4971,190.735
3500414,1954179051,-3.71192,-27.9356,199.167
3500415,1954188663,-3.75641,-30.8474,206.944
3500416,1954198311,-3.67812,-33.6393,214.355
3500417,1954207911,-3.7365,-36.2282,221.901
3500418,1954217559,-3.7264,-38.6993,228.86
3500419,1954227166,-3.98895,-40.71,235.119
3500420,1954236798,-4.09505,-43.0079,240.912
3500421,1954246391,-4.1982,-45.0453,245.605
3500422,1954256075,-4.24858,-46.9708,249.929
3500423,1954265686,-4.38226,-48.7748,253.527
3500424,1954275255,-4.2743,-50.7316,255.936
3500425,1954284962,-4.29723,-52.1349,257.662
3500426,1954294536,-4.23742,-52.8861,258.603
3500427,1954304216,-4.23787,-53.4778,259.023
3500428,1954313828,-4.23275,-54.0018,259.147
3500429,1954323397,-4.00656,-54.4953,258.836
3500430,1954333079,-3.79048,-54.9644,257.861
3500431,1954342690,-3.3718,-55.5473,255.505
3500432,1954352353,-2.99524,-55.6534,252.144
3500433,1954361938,-2.77018,-55.1359,248.231
3500434,1954371566,-2.20018,-54.7617,243.683
3500435,1954381189,-1.58178,-54.3266,238.434
3500436,1954390785,-1.15371,-53.3328,233.426
3500437,1954400460,-0.565087,-52.133,227.833
3500438,1954410095,0.0352123,-50.9133,222.191
3500439,1954419711,0.856897,-49.8396,216.285
3500440,1954429403,1.89218,-48.7731,210.14
3500441,1954439154,2.93151,-47.8018,204.082
3500442,1954448552,3.8829,-46.7489,198.351
3500443,1954458281,5.16,-45.8514,192.69
3500444,1954467897,6.17039,-45.2347,187.282
3500445,1954477492,7.6581,-44.6746,182.39
3500446,1954487049,9.02949,-44.2243,178.353
3500447,1954496737,10.637,-44.0424,174.983
3500448,1954506314,11.9419,-43.9423,172.759
3500449,1954515997,13.2721,-44.0379,171.196
3500450,1954525624,14.7171,-44.4033,170.266
3500451,1954535248,16.0173,-44.7166,169.963
3500452,1954544903,17.7111,-45.1175,170.384
3500453,1954554511,19.8322,-46.1248,171.978
3500454,1954564138,22.0618,-47.3869,174.819
3500455,1954573776,24.2705,-49.0883,178.575
3500456,1954592990,28.0577,-53.0084,189.941
3500457,1954602599,29.3633,-54.9265,195.207
3500458,1954612239,31.2383,-57.3221,201.319
3500459,1954621865,32.678,-60.1157,208.252
3500460,1954631514,34.1259,-63.1008,215.749
3500461,1954641185,35.7769,-66.6074,223.891
3500462,1954650800,37.0727,-70.4395,232.616
3500463,1954660437,38.0907,-74.4219,241.548
3500464,1954670046,39.0124,-78.5512,250.181
3500465,1954679756,40.3278,-82.9791,259.088
3500466,1954689358,41.2905,-87.6928,268.122
3500467,1954698981,42.0398,-91.9151,276.28
3500468,1954708536,42.6367,-96.0895,284.295
3500469,1954718182,43.2264,-100.545,290.927
3500470,1954727825,43.6938,-104.458,297.127
3500471,1954737451,43.54,-107.903,302.237
3500472,1954747075,43.1095,-110.88,307.037
3500473,1954756681,43.4144,-114.234,311.109
3500474,1954766381,43.3802,-116.774,313.954
3500475,1954776006,43.2336,-118.495,315.747
3500476,1954785637,42.8483,-119.48,316.308
3500477,1954795296,42.2675,-120.019,316.259
3500478,1954804899,41.5148,-120.188,315.616
3500479,1954814497,40.3053,-120.07,314.155
3500480,1954824073,39.0221,-119.88,311.519
3500481,1954833781,37.9738,-119.193,308.689
3500482,1954843390,36.7734,-117.861,305.531
3500483,1954853059,35.481,-116.756,301.997
3500484,1954862628,34.5587,-115.816,298.83
3500485,1954872297,33.9628,-114.958,295.849
3500486,1954881884,33.5577,-114.56,294.039
3500487,1954891474,33.6157,-114.615,293.218
3500488,1954901177,33.7896,-114.732,292.45
3500489,1954910837,33.818,-114.81,292.11
3500490,1954920451,33.9359,-114.95,291.913
3500491,1954930072,34.1399,-115.315,291.967
3500492,1954939603,34.7206,-116.793,292.864
3500493,1954949316,35.0919,-118.536,294.563
3500494,1954958976,35.9409,-121.111,297.313
3500495,1954968556,36.6876,-123.43,299.659
3500496,1954978189,37.38,-125.653,301.35
3500497,1954987806,38.0046,-127.223,303.063
3500498,1954997481,38.798,-128.696,304.165
3500499,1955007035,39.3034,-130.085,305.16
3500500,1955016679,39.7755,-131.083,305.39
3500501,1955026365,40.1654,-131.791,304.884
3500502,1955035964,40.198,-132.037,303.812
3500503,1955045602,40.1483,-131.551,301.216
3500504,1955055265,39.8628,-129.93,296.765
3500505,1955064900,39.093,-126.425,292.042
3500506,1955074505,38.2641,-122.561,286.635
3500507,1955084148,36.8518,-117.634,280.722
3500508,1955093685,35.12,-112.343,274.2
3500509,1955103312,33.5992,-106.05,267.057
3500510,1955113017,32.1251,-99.3646,259.31
3500511,1955122593,30.2606,-92.0749,251.608
3500512,1955132300,28.924,-84.5062,243.197
3500513,1955141890,27.4669,-76.8445,234.694
3500514,1955151479,26.3942,-69.6921,225.735
3500515,1955161159,24.9119,-62.0552,216.811
3500516,1955170783,23.4701,-54.3201,208.073
3500517,1955180390,22.1278,-46.2151,199.511
3500518,1955209301,19.1304,-23.8387,169.54
3500519,1955218916,18.41,-18.4759,163.473
3500520,1955228537,17.5435,-12.9267,156.825
3500521,1955238174,16.6166,-8.09465,149.864
3500522,1955247793,16.0498,-0.710775,140.76
3500523,1955257427,14.8515,3.82339,133.687
3500524,1955267105,13.6508,7.26784,128.308
3500525,1955276701,12.1931,10.989,124.574
3500526,1955286288,11.3111,13.5644,122.537
3500527,1955295939,10.7002,15.7675,121.702
3500528,1955305540,10.299,18.0937,121.953
3500529,1955315166,9.45869,21.1758,123.49
3500530,1955324808,8.57165,24.2553,126.072
3500531,1955334433,8.12629,26.0204,129.198
3500532,1955344050,7.27374,28.4731,133.813
3500533,1955353656,6.26643,30.3642,139.04
3500534,1955363285,5.42169,32.1192,145
3500535,1955372916,4.7195,33.8119,151.81
3500536,1955382565,3.44616,35.1363,158.702
3500537,1955392183,2.92221,35.6427,165.426
3500538,1955401806,2.2612,36.4435,172.932
3500539,1955411474,1.22733,36.9198,180.504
3500540,1955421074,0.261092,37.2111,187.857
3500541,1955430699,-0.823851,37.8003,195.112
3500542,1955440308,-1.86607,37.9576,201.916
3500543,1955449973,-3.08443,37.9671,209.109
3500544,1955459596,-3.89162,37.2756,215.797
3500545,1955469258,-5.15012,36.1621,222.532
3500546,1955478849,-6.37614,34.6654,229.615
3500547,1955488505,-7.51276,33.0375,236.415
3500548,1955498119,-8.82369,31.8275,243.129
3500549,1955507743,-10.1081,29.3513,248.907
3500550,1955517379,-11.35,27.2931,254.408
3500551,1955527005,-12.3247,25.5201,257.83
3500552,1955536619,-13.7712,24.0157,260.925
3500553,1955546266,-15.2609,23.0077,262.987
3500554,1955555868,-16.5179,22.1311,264.04
3500555,1955565499,-17.7737,21.1524,264.198
3500556,1955575122,-19.0795,20.0708,263.83
3500557,1955584730,-20.6887,18.7507,262.378
3500558,1955594356,-22.1418,17.3642,259.87
3500559,1955604006,-23.209,16.3793,257.315
3500560,1955613693,-24.2698,15.7481,254.04
3500561,1955623230,-25.0927,14.8379,250.814
3500562,1955632934,-25.4899,14.1761,247.787
3500563,1955642562,-25.5121,13.6597,245.131
3500564,1955652185,-25.4494,12.886,242.724
3500565,1955661798,-24.8856,11.8042,240.663
3500566,1955671424,-24.1274,10.0894,239.422
3500567,1955681079,-23.4756,8.26705,238.823
3500568,1955690673,-22.8183,5.82346,239.075
3500569,1955700376,-21.9839,3.00602,239.95
3500570,1955709935,-21.3221,-0.223275,241.586
3500571,1955719577,-20.6684,-3.65744,243.913
3500572,1955729192,-19.9165,-7.50277,247.424
3500573,1955738835,-19.0518,-11.6319,251.507
3500574,1955748462,-18.1776,-16.1705,256.988
3500575,1955758077,-17.12,-20.6731,262.576
3500576,1955767722,-15.6378,-25.702,268.629
3500577,1955777333,-14.6677,-30.2942,275.205
3500578,1955787003,-13.6717,-35.6101,282.104
3500579,1955796604,-12.9695,-40.9255,289.698
3500580,1955806196,-12.3095,-46.1912,297.44
3500581,1955815873,-12.082,-51.1001,306.26
3500582,1955825489,-11.5518,-56.5404,315.202
3500583,1955835113,-11.447,-62.3945,324.176
3500584,1955844744,-10.8863,-67.7446,332.206
3500585,1955854364,-10.2941,-73.9658,341.15
3500586,1955863965,-9.68827,-80.318,349.638
3500587,1955873639,-9.01354,-86.4257,357.267
3500588,1955883270,-8.1467,-92.1974,363.575
3500589,1955892888,-7.13929,-98.3842,369.383
3500590,1955902492,-5.89418,-104.759,375.413
3500591,1955912173,-4.51137,-110.999,380.827
3500592,1955921794,-3.40526,-116.491,385.941
3500593,1955931412,-2.45118,-121.23,389.153
3500594,1955941049,-0.944416,-127.349,392.868
3500595,1955950670,0.755508,-132.8,395.925
3500596,1955960327,2.13338,-137.467,398.591
3500597,1955969935,3.8905,-143.197,400.716
3500598,1955979550,5.35838,-147.692,401.272
3500599,1955989162,6.64428,-151.472,401.589
3500600,1955998783,7.13586,-153.822,401.788
3500601,1956008429,8.04513,-155.994,399.685
3500602,1956018062,8.7758,-157.613,397.575
3500603,1956027675,9.10167,-158.432,395.833
3500604,1956037320,10.0287,-158.496,390.811
3500605,1956046924,11.3566,-158.569,386.2
3500606,1956056573,12.2915,-157.294,381.063
3500607,1956066217,13.2119,-155.662,375.368
3500608,1956075828,14.1473,-152.641,368.576
3500609,1956085468,15.2454,-149.16,361.052
3500610,1956095097,16.2811,-144.792,353.664
3500611,1956104720,17.2493,-140.037,345.47
3500612,1956114356,18.1022,-135.122,337.114
3500613,1956123956,18.8351,-129.573,327.325
3500614,1956133639,19.4519,-122.856,317.067
3500615,1956143262,20.1291,-116.169,306.589
3500616,1956152863,20.2086,-108.013,295.204
3500617,1956162503,20.679,-100.532,283.078
3500618,1956172101,20.8044,-92.2751,270.7
3500619,1956181744,20.688,-83.5347,258.194
3500620,1956191385,20.9058,-75.1954,245.13
3500621,1956200994,21.0113,-66.4187,232.3
3500622,1956210631,21.0758,-58.0869,219.029
3500623,1956220332,20.8631,-49.5623,205.922
3500624,1956229975,20.7517,-41.5699,193.115
3500625,1956239469,20.4869,-33.6398,181.03
3500626,1956249179,20.3728,-26.6101,169.033
3500627,1956258754,20.1118,-19.8641,158.112
3500628,1956268419,19.7414,-13.5686,148.261
3500629,1956278046,18.8731,-7.46755,139.745
3500630,1956287723,17.8503,-2.27233,132.685
3500631,1956297347,16.9461,2.15294,127.944
3500632,1956306984,15.6562,5.79555,124.878
3500633,1956316635,14.2526,8.68128,123.546
3500634,1956326190,12.9897,10.4409,123.577
3500635,1956335816,11.6789,11.765,124.902
3500636,1956345469,9.85515,12.6673,127.777
3500637,1956355080,8.06902,13.4457,131.923
3500638,1956364721,5.98789,14.072,136.989
3500639,1956374346,3.65056,14.393,142.592
3500640,1956384002,1.17821,14.6356,148.674
3500641,1956393683,-0.859062,14.2537,154.522
3500642,1956403252,-2.66116,13.3503,160.276
3500643,1956432136,-9.04726,11.0239,180.248
3500644,1956441741,-10.2755,10.138,184.194
3500645,1956451374,-11.272,9.54676,188.695
3500646,1956460989,-12.2887,7.87622,193.13
3500647,1956470653,-13.5207,6.48694,197.617
3500648,1956480244,-14.4479,4.58444,202.068
3500649,1956489821,-14.9287,3.06069,205.738
3500650,1956499506,-15.3807,1.62252,209.23
3500651,1956509202,-15.856,-0.225295,212.509
3500652,1956518824,-16.1886,-1.41586,214.763
3500653,1956528446,-16.5138,-2.47099,216.57
3500654,1956538113,-16.5175,-3.67698,218.12
3500655,1956547697,-16.7403,-4.67608,219.188
3500656,1956557261,-16.8919,-5.61279,219.918
3500657,1956566973,-16.7339,-6.90522,220.221
3500658,1956576590,-16.871,-7.64295,220.153
3500659,1956586223,-16.8468,-8.39764,219.712
3500660,1956595855,-16.5901,-9.80778,217.925
3500661,1956605402,-15.9715,-10.8923,215.512
3500662,1956615043,-15.1778,-11.6102,212.45
3500663,1956624724,-14.2616,-11.9282,209.371
3500664,1956634367,-13.2151,-12.0147,205.898
3500665,1956643962,-11.916,-12.0692,202.508
3500666,1956653576,-10.3024,-12.078,199.031
3500667,1956663207,-8.53069,-12.6192,195.479
3500668,1956672811,-6.30805,-13.4321,192.349
3500669,1956682437,-4.1228,-14.5964,189.551
3500670,1956692265,-2.24581,-15.8611,187.718
3500671,1956701769,-0.507339,-17.17,186.773
3500672,1956711316,1.47615,-19.187,186.506
3500673,1956721029,3.26244,-21.4036,187.231
3500674,1956730602,4.96937,-23.6395,189.18
3500675,1956740277,6.70655,-26.122,192.377
3500676,1956749890,8.33145,-29.0958,196.307
3500677,1956759534,9.78346,-32.3581,201.032
3500678,1956769166,11.1716,-35.8665,206.326
3500679,1956778736,12.8375,-39.6306,212.211
3500680,1956788363,14.4373,-43.3982,218.787
3500681,1956797961,16.0991,-47.4783,225.624
3500682,1956807679,17.6194,-51.6264,233.003
3500683,1956817315,19.3632,-56.0047,240.633
3500684,1956826926,21.2272,-60.6599,248.205
3500685,1956836548,23.1713,-65.5569,255.904
3500686,1956846130,24.7482,-70.2194,263.956
3500687,1956855845,26.6216,-75.2492,271.919
3500688,1956865439,28.4062,-80.3959,279.711
3500689,1956875024,30.0259,-85.4957,287.161
3500690,1956884706,31.6191,-91.3471,295.192
3500691,1956894253,33.4107,-97.1366,303.038
3500692,1956903878,35.0153,-102.851,310.381
3500693,1956913533,36.9733,-108.883,317.174
3500694,1956923154,38.8887,-114.869,323.707
3500695,1956932829,40.1901,-120.102,329.583
3500696,1956942447,41.5564,-126.119,335.257
3500697,1956952045,43.1779,-131.732,341.323
