%frameid,time(us),x(mm),y(mm),z(mm) 
3496452,1906246967,1.25018,-85.4397,192.053
3496453,1906256844,2.19787,-80.2415,177.075
3496454,1906266662,3.2816,-71.6745,157.792
3496455,1906276494,4.40162,-60.4773,136.961
3496456,1906286390,5.75457,-48.249,118.035
3496457,1906296197,7.34388,-36.618,102.922
3496458,1906306070,8.39455,-26.3327,90.1456
3496459,1906316570,9.64458,-16.9418,80.8542
3496460,1906325650,10.457,-9.83337,76.3846
3496461,1906335537,10.3522,-3.36421,75.3483
3496462,1906345325,9.27227,2.43168,77.8336
3496463,1906355170,7.14612,7.47928,83.9496
3496464,1906364993,3.98422,11.7367,92.8286
3496465,1906374820,-0.00617861,14.9189,104.6
3496466,1906384661,-4.47665,17.1384,118.408
3496467,1906394517,-8.66477,17.8373,133.795
3496468,1906404373,-12.819,17.2417,150.94
3496469,1906414222,-16.5128,15.5895,168.758
3496470,1906424065,-19.8439,12.7203,186.941
3496471,1906433927,-22.9095,9.15623,205.999
3496472,1906443705,-25.7748,4.51612,224.492
3496473,1906453612,-28.3141,-0.743234,243.153
3496474,1906463399,-30.3684,-6.52892,260.701
3496475,1906473200,-32.3112,-11.8064,277.746
3496476,1906483106,-34.0623,-17.8933,293.465
3496477,1906492955,-35.2244,-24.9897,307.393
3496478,1906502676,-36.0147,-31.2942,320.521
3496479,1906512514,-36.5743,-38.104,332.361
3496480,1906522378,-37.2168,-44.7133,342.747
3496481,1906532225,-37.1951,-51.6007,352.03
3496482,1906542065,-37.4125,-58.4755,359.165
3496483,1906551934,-37.2514,-64.5265,364.763
3496484,1906561772,-36.7365,-70.2749,369.516
3496485,1906571634,-36.7199,-73.4773,373.695
3496486,1906581386,-36.4205,-76.1434,375.375
3496487,1906591287,-35.6573,-78.0916,374.958
3496488,1906601081,-35.1782,-78.6722,373.769
3496489,1906610892,-33.5413,-79.4335,369.04
3496490,1906620768,-32.1445,-78.2408,363.147
3496491,1906630617,-30.0811,-75.6536,356.239
3496492,1906640446,-28.6724,-70.7105,347.64
3496493,1906650338,-26.899,-64.3438,337.478
3496494,1906660175,-25.2825,-57.7465,326.019
3496495,1906670074,-23.4705,-49.6379,312.249
3496496,1906679844,-21.8838,-39.899,296.778
3496497,1906689684,-20.1923,-29.743,280.022
3496498,1906699454,-18.0716,-19.7686,260.925
3496499,1906709308,-16.2008,-9.47763,240.268
3496500,1906719170,-13.9861,-0.656581,218.576
3496501,1906728990,-11.4351,6.80688,196.831
3496502,1906738895,-8.23508,11.6835,174.587
3496503,1906748726,-4.91378,13.3253,155.299
3496504,1906758479,-1.67432,12.5531,139.255
3496505,1906768329,1.23712,9.93411,126.379
3496506,1906778171,3.82732,6.00255,117.747
3496507,1906788017,6.11243,0.865426,113.722
3496508,1906797809,7.65291,-5.19499,113.653
3496509,1906807659,9.01099,-11.8065,118.176
3496510,1906817546,10.1028,-19.4219,126.69
3496511,1906827391,10.6041,-28.1611,138.726
3496512,1906837181,10.5674,-37.8366,153.502
3496513,1906847037,10.5537,-48.8868,171.474
3496514,1906856826,10.3353,-61.2006,191.156
3496515,1906866686,9.89844,-75.4783,212.685
3496516,1906876540,9.30923,-91.5594,235.104
3496517,1906886461,9.12071,-109.487,258.085
3496518,1906896224,8.90051,-129.156,280.863
3496519,1906906035,9.49428,-149.992,303.08
3496520,1906915943,9.77148,-171.587,324.644
3496521,1906925736,10.0118,-194.18,344.221
3496522,1906935599,11.615,-217.757,361.252
3496523,1906945436,13.671,-243.435,376.6
3496524,1906955292,15.3823,-267.63,388.579
3496525,1906965103,17.9787,-290.532,397.261
3496526,1906974959,21.4967,-311.425,402.773
3496527,1906984734,25.4406,-332.662,407.543
3496528,1906994573,28.668,-351.244,409.14
3496529,1907004443,28.9402,-366.312,412.508
3496530,1907014309,26.9978,-376.945,415.431
3496553,1907260221,15.3126,3.90554,127.735
3496554,1907270014,12.1136,3.85285,127.033
3496555,1907279840,8.65475,4.85534,128.295
3496556,1907289700,4.14479,5.67012,132.624
3496557,1907299522,-1.086,6.04928,140.271
3496558,1907309322,-6.80724,5.47288,150.165
3496559,1907319230,-12.1913,4.00766,161.33
3496560,1907329076,-16.9901,1.56491,174.392
3496561,1907338879,-21.66,-1.7104,187.778
3496562,1907348749,-25.7198,-5.88715,201.985
3496563,1907358617,-30.1226,-10.1653,216.338
3496564,1907368419,-33.5116,-14.5333,229.844
3496565,1907378252,-36.7656,-19.0411,242.911
3496566,1907388119,-38.8636,-23.5601,254.598
3496567,1907397906,-40.7036,-28.298,265.589
3496568,1907407735,-41.9112,-33.0947,274.726
3496569,1907417575,-43.2178,-38.2386,283.537
3496570,1907437465,-44.6707,-47.6707,299.662
3496571,1907447059,-44.7375,-51.0634,304.223
3496572,1907456883,-44.3679,-54.5357,307.899
3496573,1907466791,-44.1438,-57.5007,311.126
3496574,1907476624,-43.6458,-59.2217,313.446
3496575,1907486470,-43.388,-60.2295,314.392
3496576,1907506130,-43.1311,-62.1203,313.956
3496577,1907515950,-42.0822,-63.055,312.155
3496578,1907525691,-40.112,-63.7409,307.168
3496579,1907535641,-38.201,-63.3853,302.009
3496580,1907545479,-36.7837,-63.4216,295.807
3496581,1907555276,-35.3434,-62.4864,289.252
3496582,1907565107,-33.4764,-60.6215,280.589
3496583,1907574913,-31.6844,-58.4179,270.943
3496584,1907584742,-30.2466,-55.3012,260.463
3496585,1907594626,-28.3872,-51.5135,248.549
3496586,1907604505,-26.6249,-47.2,234.386
3496587,1907614288,-25.0475,-42.3916,219.345
3496588,1907624180,-23.0931,-37.7689,202.619
3496589,1907633962,-21.0655,-32.6072,185.328
3496590,1907643820,-18.6111,-27.8257,167.413
3496591,1907653648,-15.8214,-23.8975,148.788
3496592,1907663476,-12.3125,-20.7373,131.274
3496593,1907673275,-8.50153,-18.5457,114.966
3496594,1907683164,-4.09662,-18.3802,101.061
3496595,1907692981,-0.422602,-19.4073,90.4677
3496596,1907702813,2.49406,-21.0984,83.3299
3496597,1907712657,4.63451,-24.2255,81.4339
3496598,1907722515,5.69307,-27.297,84.3607
3496599,1907732350,5.94827,-31.9142,91.8375
3496600,1907742238,5.22897,-36.4525,102.839
3496601,1907752023,4.17318,-42.3701,117.378
3496602,1907761846,2.82161,-49.5406,134.823
3496603,1907771697,1.22094,-57.8487,154.142
3496604,1907781542,-0.166697,-67.0614,174.805
3496605,1907791404,-1.40621,-77.5114,196.125
3496606,1907801194,-2.70448,-89.0836,217.271
3496607,1907811067,-3.91464,-101.352,238.339
3496608,1907820868,-5.09426,-113.816,257.706
3496609,1907830703,-6.29016,-126.177,277.115
3496610,1907840495,-7.14396,-138.697,295.139
3496611,1907850418,-7.75133,-150.405,311.438
3496612,1907860214,-8.09119,-162.215,325.664
3496613,1907870048,-8.23154,-173.531,338.026
3496614,1907879955,-8.02352,-184.532,349.494
3496615,1907889710,-7.80882,-193.779,358.91
3496616,1907899570,-7.36156,-204.477,368.75
3496617,1907909365,-7.95492,-213.273,377.486
3496618,1907919265,-7.46377,-220.799,384.91
3496619,1907929123,-7.44203,-226.545,391.044
3496620,1907938874,-7.68369,-231.268,393.57
3496621,1907948760,-6.58401,-236.928,397.565
3496622,1907958630,-6.02398,-240.32,397.353
3496623,1907968473,-4.57755,-243.834,398.859
3496624,1907978268,-4.519,-244.158,398.293
3496625,1907988161,-3.73668,-243.914,396.058
3496626,1907997983,-2.23764,-242.947,391.669
3496627,1908007806,-0.586428,-240.216,386.291
3496628,1908017642,0.325825,-236.837,380.965
3496629,1908027480,1.0323,-229.999,372.596
3496630,1908037338,1.90533,-222.562,364.366
3496631,1908047164,2.49304,-213.556,355.87
3496632,1908056891,3.69285,-204.094,345.583
3496633,1908066868,5.41423,-193.215,334.036
3496634,1908076677,6.16316,-180.374,323.404
3496635,1908086455,7.03293,-166.097,310.254
3496636,1908096303,8.23175,-150.827,296.223
3496637,1908106134,7.88609,-132.514,282.054
3496638,1908116021,7.74228,-113.822,265.695
3496639,1908125802,7.0156,-93.3948,249.057
3496640,1908135643,5.36834,-71.9148,231.274
3496641,1908145481,3.93877,-52.5743,213.005
3496642,1908155298,2.90919,-36.8103,194.233
3496643,1908165168,1.7032,-23.534,177.371
3496644,1908175028,0.126845,-12.4302,163.831
3496645,1908184849,-2.29952,-3.0601,152.8
3496646,1908194658,-4.71025,4.27401,145.689
3496647,1908204511,-6.85334,8.87497,143.58
3496648,1908214371,-9.30869,12.2783,144.482
3496649,1908224202,-12.3696,14.2368,148.169
3496650,1908234080,-15.0864,14.5721,153.679
3496651,1908243837,-18.2435,14.4282,160.661
3496652,1908253741,-21.1025,13.6574,169.475
3496653,1908263538,-24.1582,13.0741,179.832
3496654,1908273314,-26.8523,11.4977,190.751
3496655,1908283253,-29.7227,9.98839,202.131
3496656,1908293041,-32.603,8.27579,213.667
3496657,1908302932,-34.7037,6.12156,224.952
3496658,1908312708,-36.4945,3.60141,235.513
3496659,1908322553,-37.9826,0.512916,245.517
3496660,1908332387,-39.2499,-3.04057,255.194
3496661,1908342206,-40.744,-6.09253,264.649
3496662,1908352128,-41.6372,-9.45212,273.202
3496663,1908381549,-43.6675,-18.2382,294.608
3496664,1908391494,-44.066,-19.6835,298.486
3496665,1908401273,-44.0331,-21.906,301.586
3496666,1908411085,-43.7413,-24.2772,303.821
3496667,1908420900,-43.6664,-25.7631,305.453
3496668,1908430785,-43.4761,-26.6101,306.28
3496669,1908440685,-43.2507,-27.0723,306.388
3496670,1908450462,-42.554,-28.0408,305.742
3496671,1908460293,-41.3817,-29.3274,303.682
3496672,1908470138,-39.6495,-30.5215,299.668
3496673,1908479965,-37.8255,-31.6208,294.715
3496674,1908489840,-36.0296,-32.0382,288.904
3496675,1908499641,-34.0565,-32.3216,282.653
3496676,1908509410,-32.1717,-32.1037,274.75
3496677,1908519304,-30.1588,-31.1435,265.291
3496678,1908529153,-28.1311,-29.6673,254.81
3496679,1908538957,-25.9255,-28.2194,243.746
3496680,1908548802,-23.0238,-26.7181,231.402
3496681,1908558669,-20.0224,-25.2052,218.034
3496682,1908568447,-16.8079,-23.5799,204.677
3496683,1908578304,-13.2722,-22.5704,191.754
3496684,1908588204,-9.49013,-21.9886,179.258
3496685,1908597968,-5.67901,-22.553,169.416
3496686,1908607841,-2.36772,-23.7524,162.128
3496687,1908617641,0.542386,-25.3971,157.526
3496688,1908627481,3.1817,-27.556,156.158
3496689,1908637357,4.40954,-28.9585,157.471
3496690,1908647112,5.54665,-31.3038,162.633
3496691,1908656975,6.12347,-34.5186,171.196
3496692,1908666812,6.13404,-38.0999,181.934
3496693,1908676668,5.81198,-42.0556,194.922
3496694,1908686490,5.38181,-47.0773,209.736
3496695,1908696359,4.90271,-52.7287,225.425
3496696,1908706187,4.2845,-58.8957,242.221
3496697,1908716053,4.11377,-66.1342,259.732
3496698,1908725805,3.97831,-73.4043,277.261
3496699,1908735723,3.90261,-80.9958,294.878
3496700,1908745535,3.95902,-89.4536,311.056
3496701,1908755386,4.44349,-98.1531,326.995
3496702,1908765241,5.25002,-107.044,342.649
3496703,1908775088,6.15644,-116.806,356.12
3496704,1908784915,7.61833,-126.641,368.136
3496705,1908794753,9.52877,-136.897,377.489
3496706,1908804581,10.8021,-145.256,385.576
3496707,1908814381,12.6552,-154.728,392.597
3496708,1908824218,14.7731,-163.1,398.103
3496709,1908834127,16.3572,-170.91,402.532
3496710,1908843955,18.1425,-177.983,406.211
3496711,1908853788,18.772,-183.143,408.403
3496712,1908863626,19.9831,-188.563,409.509
3496713,1908873360,20.5947,-191.684,409.215
3496714,1908883316,20.5634,-194.113,406.138
3496715,1908893116,20.3373,-195.303,403.52
3496716,1908902966,19.6433,-195.405,400.089
3496717,1908912786,20.1848,-193.875,393.882
3496718,1908922581,20.4234,-191.51,387.786
3496719,1908932466,20.8702,-187.898,380.515
3496720,1908942261,21.3505,-182.448,371.61
3496721,1908952171,20.0113,-175.394,362.431
3496722,1908961977,19.4043,-166.29,350.303
3496723,1908971787,18.9566,-156.33,338.327
3496724,1908981614,18.1829,-144.447,324.962
3496725,1908991479,17.1266,-131.223,311.546
3496726,1909001334,15.65,-117.139,296.521
3496727,1909011175,13.4489,-101.362,281.336
3496728,1909020951,11.6087,-84.4279,264.945
3496729,1909030734,9.75047,-66.8683,246.961
3496730,1909040653,7.89908,-49.3581,227.556
3496731,1909050494,5.37215,-32.5023,207.891
3496732,1909060311,4.11895,-18.7569,188.122
3496733,1909070137,3.52555,-8.05734,170.384
3496734,1909089797,0.360736,8.21636,141.553
3496735,1909099643,-1.73058,12.0958,134.821
3496736,1909109572,-4.88925,15.6526,131.03
3496737,1909119333,-8.65051,18.338,130.375
3496738,1909129186,-12.739,20.1226,133.148
3496739,1909138958,-16.4619,20.8726,138.326
3496740,1909148808,-20.2837,21.082,145.318
3496741,1909158705,-23.9929,20.4557,153.761
3496742,1909168498,-27.9942,19.8683,163.791
3496743,1909178393,-31.9448,18.8623,174.534
3496744,1909188210,-35.1991,17.5636,185.664
3496745,1909198087,-38.3124,15.98,197.054
3496746,1909207876,-41.2013,13.8261,208.217
3496747,1909217719,-43.7467,11.6313,219.227
3496748,1909227564,-46.0955,9.08737,229.813
3496749,1909237410,-47.7519,7.0546,239.32
3496750,1909247203,-49.1879,4.40745,248.791
3496751,1909257007,-50.5903,1.97507,257.504
3496752,1909266929,-51.6558,-0.252375,264.891
3496753,1909276745,-52.5763,-2.04827,271.541
3496754,1909286559,-52.9623,-4.12753,277.133
3496755,1909296466,-53.2228,-5.63866,281.074
3496756,1909306222,-53.6404,-6.71498,284.216
3496757,1909316094,-53.4814,-7.70211,285.973
3496758,1909325868,-53.3111,-8.40383,287.087
3496759,1909335733,-52.9018,-8.94187,287.337
3496760,1909345574,-52.366,-9.39486,287.177
3496761,1909355429,-51.5883,-9.7411,286.319
3496762,1909365283,-49.3735,-10.4026,282.645
3496763,1909375100,-47.4788,-10.5954,278.039
3496764,1909384901,-45.828,-10.177,272.321
3496765,1909394740,-44.2299,-9.13936,265.009
3496766,1909404585,-42.319,-7.65151,256.03
3496767,1909414466,-40.5374,-5.65142,245.361
3496768,1909424257,-38.1912,-3.31282,233.221
3496769,1909434105,-35.5182,-0.787211,219.952
3496770,1909443912,-32.7104,1.78486,205.543
3496771,1909453770,-29.7595,4.49987,189.894
3496772,1909463618,-26.375,7.02033,174.26
3496773,1909473438,-22.7067,9.01354,158.931
3496774,1909483316,-18.4656,10.0395,144.177
3496775,1909493137,-14.0617,10.3551,131.716
3496776,1909502993,-9.65891,10.1806,121.861
3496777,1909512792,-5.76634,9.58325,115.121
3496778,1909522632,-2.65291,8.48463,110.98
3496779,1909532472,0.117033,6.69014,109.931
3496780,1909542261,1.70966,4.46757,111.885
3496781,1909552144,2.82804,1.74767,116.791
3496782,1909561957,3.28722,-1.23261,123.882
3496783,1909571830,2.79413,-4.93588,133.5
3496784,1909581599,1.59203,-9.07369,144.941
3496785,1909591465,0.159302,-13.6827,157.789
3496786,1909601259,-1.57416,-19.0453,172.362
3496787,1909630864,-9.26467,-39.8743,228.221
3496788,1909640681,-9.71747,-45.9114,240.037
3496789,1909650503,-10.408,-53.5134,253.409
3496790,1909660343,-11.7754,-61.1811,267.121
3496791,1909670180,-12.6519,-69.5797,281.857
3496792,1909680042,-13.2642,-78.3036,295.615
3496793,1909690367,-13.2937,-87.5368,308.315
3496794,1909699707,-13.6066,-95.944,319.746
3496795,1909709564,-13.4645,-104.53,330.552
3496796,1909719368,-13.287,-112.119,340.843
3496797,1909729167,-12.6728,-119.802,348.557
3496798,1909739031,-12.1926,-127.029,354.672
3496799,1909748861,-11.7199,-133.342,360.212
3496800,1909758701,-10.954,-138.924,363.316
3496801,1909768603,-10.4755,-143.641,365.403
3496802,1909778428,-10.4467,-146.011,365.763
3496803,1909788271,-10.1523,-147.793,365.697
3496804,1909798090,-9.98452,-148.453,364.597
3496805,1909807974,-9.49866,-148.403,362.854
3496806,1909817774,-8.63889,-146.741,357.088
3496807,1909827611,-8.00331,-143.992,351.398
3496808,1909837451,-6.92701,-140.299,344.924
3496809,1909847307,-6.67003,-134.372,336.46
3496810,1909857008,-5.91598,-127.655,327.712
3496811,1909866909,-5.18608,-119.562,317.863
3496812,1909876836,-3.61111,-111.202,306.315
3496813,1909886612,-3.05997,-101.413,294.674
3496814,1909896489,-2.52303,-89.5882,281.07
3496815,1909906287,-1.85206,-77.3493,266.173
3496816,1909916103,-1.65669,-64.4386,250.487
3496817,1909925901,-1.70885,-51.0376,233.621
3496818,1909935810,-1.73555,-37.7476,216.239
3496819,1909945622,-1.28248,-25.3707,198.459
3496820,1909955424,-0.438983,-13.4915,181.678
3496821,1909965330,0.998818,-3.44582,165.152
3496822,1909975111,2.3379,5.20533,150.4
3496823,1909984920,3.66683,12.3168,137.181
3496824,1909994803,4.25719,18.5019,126.6
3496825,1910004652,4.46382,23.7012,118.531
3496826,1910014509,4.18228,27.2396,113.4
3496827,1910024308,3.43523,29.7147,111.45
3496828,1910034129,2.55659,31.4895,112.794
3496829,1910043981,0.611316,33.6986,116.67
3496830,1910053816,-1.79764,35.7031,123.152
3496831,1910063647,-4.68704,37.2188,131.2
3496832,1910073449,-7.67264,38.1966,140.821
3496833,1910083323,-11.1217,39.0758,151.413
3496834,1910093175,-14.3417,38.9981,162.56
3496835,1910103036,-17.7829,38.9099,173.92
3496836,1910112895,-20.5409,37.735,184.933
3496837,1910122718,-23.7243,36.6915,196.942
3496838,1910132509,-26.4889,35.4081,207.924
3496839,1910142380,-29.2374,34.1243,218.903
3496840,1910152218,-31.2267,31.4927,228.488
3496841,1910162065,-32.9567,28.4254,236.65
3496842,1910171869,-34.7402,24.8327,244.847
3496843,1910181698,-36.2996,21.9463,251.528
3496844,1910191516,-37.9409,18.9243,258.133
3496845,1910201407,-39.2378,16.2528,263.182
3496846,1910211197,-40.3209,13.8071,266.351
3496847,1910221076,-41.2344,11.4201,268.96
3496848,1910230932,-42.0301,9.90448,270.539
3496849,1910240818,-42.5185,8.4525,271.091
3496850,1910250594,-42.906,7.272,270.715
3496851,1910260440,-43.0901,6.28015,269.226
3496852,1910270303,-43.2167,4.85605,265.253
3496853,1910280106,-42.7655,3.40792,260.588
3496854,1910289863,-41.922,2.58842,254.635
3496855,1910299745,-40.9568,1.96916,247.581
3496856,1910309613,-39.7697,1.66993,239.479
3496857,1910319396,-38.4833,2.07731,230.16
3496858,1910329301,-36.7874,2.66409,219.872
3496859,1910339118,-34.6249,3.28037,208.731
3496860,1910348976,-31.8858,3.5492,196.592
3496861,1910358752,-29.2718,4.19396,182.73
3496862,1910368592,-26.032,4.69333,169.45
3496863,1910378408,-22.1264,4.46778,156.07
3496864,1910388270,-17.9979,3.71939,142.767
3496865,1910398102,-13.4273,2.11312,131.145
3496866,1910407981,-8.73772,-0.358409,121.748
3496867,1910417794,-4.71374,-4.07515,115.089
3496868,1910427621,-0.904245,-8.35743,111.333
3496869,1910437424,1.99762,-13.5655,110.415
3496870,1910447298,3.49748,-19.161,113.017
3496871,1910457063,3.88919,-25.318,119.029
3496872,1910466965,3.77956,-31.0642,128.317
3496873,1910476781,2.22487,-35.8211,138.977
3496874,1910486694,0.582086,-41.2875,152.801
3496875,1910496486,-1.69681,-47.6958,169.735
3496876,1910506307,-3.62279,-54.6719,187.946
3496877,1910516208,-5.56191,-62.7793,207.699
3496878,1910525995,-6.975,-71.1894,227.647
3496879,1910535826,-8.36201,-80.7789,247.126
3496880,1910545673,-8.89165,-91.2288,266.371
3496881,1910555502,-8.93846,-102.054,285.015
3496882,1910565319,-8.57178,-112.697,301.568
3496883,1910575142,-7.7477,-123.402,315.877
3496884,1910584963,-7.19146,-134.029,329.348
3496885,1910594797,-6.58528,-143.517,341.619
3496886,1910604692,-5.75702,-153.023,351.267
3496887,1910614537,-4.48751,-160.125,359.295
3496888,1910624413,-3.95634,-166.23,365.757
3496889,1910634228,-3.06391,-172.13,370.594
3496890,1910644069,-1.22099,-177.645,373.318
3496891,1910653935,0.0122508,-182.05,376.515
3496892,1910663680,1.08775,-183.992,377.41
3496893,1910673497,1.70214,-185.627,378.032
3496894,1910683363,2.54047,-186.052,377.18
3496895,1910693221,4.02082,-184.841,373.168
3496896,1910703098,5.1399,-183.171,369.445
3496897,1910712860,6.66204,-180.134,363.451
3496898,1910722699,8.22559,-174.879,356.596
3496899,1910732615,9.47052,-170.545,349.836
3496900,1910742346,10.599,-163.959,341.478
3496901,1910752252,12.0367,-157.146,331.627
3496902,1910762051,13.1429,-149.411,321.62
3496903,1910771881,14.0984,-139.632,309.736
3496904,1910781803,15.3696,-129.876,295.847
3496905,1910791534,16.1256,-118.108,281.956
3496906,1910801441,17.3571,-106.487,265.499
3496907,1910811304,17.1786,-93.0203,249.886
3496908,1910821134,16.5383,-79.3722,233.471
3496909,1910830990,14.4203,-62.9031,218.568
3496910,1910840802,12.9079,-47.132,200.642
3496911,1910850631,11.3189,-31.0833,181.21
3496912,1910880138,10.2118,8.41031,117.237
3496913,1910889892,9.8333,12.1136,107.355
3496914,1910899834,8.83071,15.0796,99.849
3496915,1910909629,7.55094,17.8675,95.1369
3496916,1910919695,5.52849,19.9562,93.0784
3496917,1910929300,3.1983,21.1981,93.6818
3496918,1910948959,-3.44342,23.2158,104.612
3496919,1910958780,-5.62806,23.3407,110.454
3496920,1910968624,-8.1766,23.0886,118.107
3496921,1910978466,-11.0246,23.2986,127.096
3496922,1910988359,-13.9376,22.6668,136.872
3496923,1910998209,-16.2964,21.6344,146.68
3496924,1911017869,-21.3702,17.79,169.156
3496925,1911027601,-22.8515,16.051,177.235
3496926,1911037537,-24.3443,13.8412,185.894
