%frameid,time(us),x(mm),y(mm),z(mm) 
932950,2120019090,-6.78589,-170.76,285.484
932951,2120028219,-6.73918,-170.615,285.365
932952,2120037514,-6.68671,-170.501,285.287
932953,2120046630,-6.56182,-170.534,285.474
932954,2120055925,-5.458,-172.027,286.446
932955,2120065198,-4.89085,-173.28,286.592
932956,2120074375,-4.94228,-173.211,286.426
932957,2120083620,-5.25754,-172.843,285.922
932958,2120092869,-5.34971,-172.745,285.816
932959,2120102132,-5.41482,-172.695,285.73
932960,2120111339,-5.44872,-172.671,285.701
932961,2120120535,-5.47271,-172.659,285.685
932962,2120129772,-5.28884,-172.977,285.918
932963,2120139008,-5.19307,-173.23,285.995
932964,2120148265,-4.95988,-173.612,286.192
932965,2120157472,-5.17468,-173.446,286.035
932966,2120166733,-5.17637,-173.455,286.079
932967,2120175899,-4.84867,-174.781,287.002
932968,2120185161,-4.6649,-175.623,287.493
932969,2120194421,-5.33382,-174.655,287.312
932970,2120203626,-5.71898,-174.13,287.586
932971,2120212800,-6.2741,-173.261,287.685
932972,2120222020,-6.53598,-172.778,287.875
932973,2120231292,-6.70063,-172.771,288.176
932974,2120240557,-7.31406,-171.839,287.955
932975,2120249751,-8.18006,-169.718,287.118
932976,2120259020,-8.89565,-167.918,287.194
932977,2120268243,-9.42739,-167.057,287.777
932978,2120277444,-9.99646,-166.342,288.244
932979,2120286680,-11.0607,-164.236,288.701
932980,2120295854,-12.731,-160.948,289.485
932981,2120305075,-13.6043,-158.216,289.173
932982,2120314348,-14.719,-154.102,288.786
932983,2120323616,-15.1706,-152.674,289.914
932984,2120332838,-16.3042,-148.783,290.066
932985,2120342078,-17.5951,-144.575,290.128
932986,2120351299,-18.8889,-139.892,290.289
932987,2120360510,-19.8392,-135.757,290.521
932988,2120369754,-20.7192,-131.1,290.557
932989,2120378943,-21.4997,-126.866,290.587
932990,2120388237,-21.9689,-122.863,290.522
932991,2120397452,-22.3102,-118.317,290.02
932992,2120406627,-22.9688,-114.045,290.204
932993,2120415893,-23.7114,-109.377,289.674
932994,2120425113,-24.5268,-104.777,289.523
932995,2120434371,-25.1909,-100.246,288.841
932996,2120443582,-26.0295,-94.9107,288.237
932997,2120452808,-26.6867,-90.0719,287.836
932998,2120462006,-26.9491,-85.1797,287.419
932999,2120471301,-27.4709,-79.7387,286.601
933000,2120480519,-28.0926,-74.3583,286.024
933001,2120489752,-28.9716,-68.9177,285.754
933002,2120498880,-29.6798,-63.7716,285.526
933003,2120508233,-30.3162,-58.9318,284.238
933004,2120517422,-31.0195,-53.5065,283.917
933005,2120545126,-32.9202,-34.3188,282.366
933006,2120554349,-33.3649,-29.5993,281.84
933007,2120563530,-33.7046,-24.5946,281.167
933008,2120582033,-33.5431,-14.0266,279.216
933009,2120591204,-33.5533,-9.12281,278.633
933010,2120600509,-33.2411,-4.11744,278.026
933011,2120609716,-33.229,1.52837,277.234
933012,2120618883,-33.0118,6.87619,276.201
933013,2120628202,-32.5981,11.6438,275.111
933014,2120637400,-32.0745,15.6623,274.105
933015,2120646618,-31.5618,20.253,273.492
933016,2120655881,-30.9395,23.6371,272.242
933017,2120665132,-30.2572,25.2777,271.569
933018,2120674263,-29.672,26.5679,271.135
933019,2120683563,-29.0954,27.8673,270.682
933020,2120692800,-28.5283,28.7101,270.278
933021,2120702047,-28.1168,29.0107,269.973
933022,2120711222,-27.7163,29.1822,269.766
933023,2120720528,-27.3016,29.2339,269.608
933024,2120729722,-26.6536,28.5495,269.438
933025,2120738894,-26.0744,27.6815,269.379
933026,2120748198,-25.1005,25.6409,269.337
933027,2120757410,-24.2206,22.8512,269.703
933028,2120766623,-23.3229,19.232,269.953
933029,2120775818,-22.5483,15.516,270.185
933030,2120785058,-21.776,12.0768,270.454
933031,2120794234,-21.1514,8.32915,270.831
933032,2120803579,-20.5871,4.06966,271.26
933033,2120812776,-19.7782,-0.568298,271.681
933034,2120821953,-19.0182,-5.72182,271.828
933035,2120831170,-18.5237,-10.7397,272.352
933036,2120840469,-17.8861,-15.8001,272.649
933037,2120849726,-17.2132,-21.6297,272.951
933038,2120858915,-16.6829,-27.2542,273.312
933039,2120868117,-15.9005,-33.0548,273.682
933040,2120877388,-15.4297,-39.2799,273.748
933041,2120886577,-14.6757,-45.5522,273.606
933042,2120895776,-13.8883,-52.0009,274.041
933043,2120905005,-13.1284,-58.3008,274.221
933044,2120914312,-12.5603,-64.7715,274.214
933045,2120923513,-11.8216,-70.7489,274.5
933046,2120932713,-11.1066,-77.3212,274.686
933047,2120941988,-10.2307,-83.8337,274.855
933048,2120951185,-9.37726,-89.8533,274.889
933049,2120960434,-8.46611,-95.7185,275.22
933050,2120969685,-7.54128,-101.654,275.256
933051,2120978832,-6.56294,-107.314,275.352
933052,2120988157,-5.72585,-113.204,275.307
933053,2120997360,-4.88111,-118.833,275.743
933054,2121006527,-3.86451,-124.189,275.787
933055,2121015791,-2.91926,-129.616,275.992
933056,2121025021,-2.268,-135.444,275.813
933057,2121034305,-1.23803,-141.087,275.859
933058,2121043482,-0.382512,-146.217,275.892
933059,2121052729,0.168119,-151.246,275.65
933060,2121062013,2.17913,-159.116,277.09
933061,2121071171,2.67453,-163.609,276.648
933062,2121080448,3.18915,-166.818,276.53
933063,2121089607,3.98677,-170.846,276.953
933064,2121098837,4.16583,-172.858,276.539
933065,2121108132,4.68134,-175.911,275.902
933066,2121117373,4.98692,-177.931,275.616
933067,2121126616,4.97346,-179.467,275.654
933068,2121135851,5.12031,-180.834,275.351
933069,2121145020,5.16319,-183.784,275.962
933070,2121154272,5.64374,-188.334,278.797
933071,2121163497,5.50242,-189.913,278.702
933072,2121172779,5.12096,-190.878,278.932
933073,2121181995,4.84375,-190.94,278.483
933074,2121191197,4.51012,-191.005,278.166
933075,2121200440,3.93795,-190.817,278.207
933076,2121209590,2.97244,-189.73,278.332
933077,2121218904,2.03688,-188.922,278.354
933078,2121228106,0.774425,-187.164,278.24
933079,2121237353,-0.200855,-185.026,277.141
933080,2121246543,-1.15362,-182.339,277.013
933081,2121255810,-2.30063,-177.312,275.913
933082,2121265009,-3.52624,-173.531,275.581
933083,2121274211,-4.82395,-170.07,275.797
933084,2121283452,-6.14557,-165.735,276.12
933085,2121292724,-7.29941,-160.834,276.042
933086,2121301984,-8.77172,-156.067,276.358
933087,2121311219,-10.6221,-151.389,277.14
933088,2121320421,-12.387,-147.324,278.473
933089,2121329639,-13.8256,-141.403,278.519
933090,2121338771,-15.3499,-135.592,278.8
933091,2121348048,-16.6263,-129.936,278.815
933092,2121357286,-17.9458,-123.783,278.836
933093,2121366600,-19.2024,-117.948,279.249
933094,2121375783,-20.5144,-112.215,279.335
933095,2121385047,-21.8921,-106.028,279.865
933096,2121394229,-23.4378,-99.3175,280.315
933097,2121403477,-24.7857,-92.6115,280.206
933098,2121412630,-26.0171,-86.3837,280.909
933099,2121421974,-27.2472,-80.6045,281.228
933100,2121431194,-28.4298,-73.963,281.535
933101,2121440384,-29.4529,-68.3315,281.545
933102,2121449665,-30.4888,-61.637,281.545
933103,2121458898,-31.505,-55.1048,281.467
933104,2121468122,-32.3676,-48.5368,280.368
933105,2121477313,-32.8451,-42.609,279.938
933106,2121486568,-33.4484,-36.367,279.57
933107,2121495725,-33.9169,-30.349,279.309
933108,2121505047,-34.4486,-23.9206,279.026
933109,2121514202,-34.9592,-17.4325,278.745
933110,2121523477,-35.1457,-12.1451,278.044
933111,2121532707,-35.2428,-6.4394,277.865
933112,2121541899,-35.2906,-0.609763,277.664
933113,2121551111,-35.2062,4.78636,277.353
933114,2121560377,-34.8745,9.62519,276.766
933115,2121569616,-34.6498,14.4006,276.43
933116,2121578778,-34.3911,19.5247,276.018
933117,2121588073,-33.9927,23.5574,275.548
933118,2121597246,-33.3927,26.9748,275.126
933119,2121606541,-32.8775,30.5375,274.499
933120,2121615683,-32.2973,33.616,274.002
933121,2121624959,-31.9694,36.4823,273.606
933122,2121634200,-31.4971,38.619,273.255
933123,2121643424,-31.1813,40.5633,272.858
933124,2121652712,-30.8371,42.0391,272.604
933125,2121661927,-30.5897,43.3732,272.402
933126,2121671138,-30.3798,44.1775,272.273
933127,2121680342,-30.2163,44.639,272.237
933128,2121689554,-30.0944,44.7299,272.19
933129,2121717265,-29.8829,43.4373,272.378
933130,2121726455,-29.758,41.7037,272.277
933131,2121735765,-29.5955,38.9085,272.671
933132,2121744957,-29.8114,36.2485,273.224
933133,2121754231,-29.9946,31.6913,273.379
933134,2121763384,-29.8792,27.3538,274.199
933135,2121772664,-29.6046,22.6257,274.558
933136,2121781904,-29.6247,18.1143,275.089
933137,2121791126,-29.5233,13.2542,275.471
933138,2121800338,-29.4084,8.08095,275.814
933139,2121809543,-29.3215,2.96279,276.186
933140,2121818765,-29.4588,-2.51887,276.807
933141,2121828052,-29.402,-9.00072,276.904
933142,2121837270,-29.2627,-15.2383,277.188
933143,2121846424,-29.1341,-21.8201,277.031
933144,2121855734,-29.1047,-28.1629,277.366
933145,2121864973,-28.8718,-34.7507,277.577
933146,2121874185,-28.7222,-41.502,277.873
933147,2121883411,-28.4771,-48.1308,278.27
933148,2121892690,-28.1652,-55.0205,278.453
933149,2121901873,-28.0239,-62.0944,278.292
933150,2121911140,-27.5956,-69.1368,277.922
933151,2121920341,-27.0632,-76.2623,277.451
933152,2121929600,-26.3443,-83.4183,276.686
933153,2121938765,-25.7871,-90.0043,275.532
933154,2121948007,-25.1214,-96.4696,274.527
933155,2121957253,-24.5018,-102.949,274.171
933156,2121966527,-23.6356,-109.143,273.071
933157,2121975679,-22.9627,-115.165,272.19
933158,2121984903,-22.168,-121.09,271.407
933159,2121994184,-21.351,-126.642,270.368
933160,2122003382,-20.2488,-132.29,268.964
933161,2122012621,-19.0523,-139.083,268.175
933162,2122021839,-18.3937,-143.9,265.978
933163,2122031002,-17.623,-148.841,265.322
933164,2122040367,-16.9789,-153.423,264.122
933165,2122049524,-16.2365,-156.814,262.932
933166,2122058719,-15.5009,-159.945,261.226
933167,2122067964,-15.08,-161.916,258.649
933168,2122077292,-14.5654,-165.617,258.01
933169,2122086471,-14.3917,-169.016,256.275
933170,2122095618,-13.7189,-171.757,255.594
933171,2122104956,-13.6943,-174.899,255.589
933172,2122114165,-13.6582,-176.872,255.718
933173,2122123359,-13.695,-177.979,255.119
933174,2122132634,-13.7415,-180.032,255.258
933175,2122141851,-13.774,-182.032,255.302
933176,2122151103,-13.8541,-183.26,254.742
933177,2122160331,-14.0754,-183.94,254.32
933178,2122169584,-14.3369,-184.281,253.961
933179,2122178719,-14.6148,-184.374,253.315
933180,2122187965,-14.7759,-184.539,253.109
933181,2122197195,-14.9217,-184.2,252.821
933182,2122206461,-15.2942,-183.071,252.946
933183,2122215722,-15.5927,-181.806,253.234
933184,2122224943,-16.1005,-178.894,253.197
933185,2122234183,-16.4188,-175.137,252.891
933186,2122243392,-16.7716,-170.719,251.38
933187,2122252602,-16.8107,-167.427,251.434
933188,2122261837,-17.2033,-163.065,250.466
933189,2122271188,-17.6004,-158.079,251.073
933190,2122280319,-17.926,-153.038,252.117
933191,2122289539,-18.7873,-148.42,253.122
933192,2122298749,-19.2863,-144.867,253.828
933193,2122308009,-19.6795,-140.467,254.691
933194,2122317147,-20.4023,-135.018,255.893
933195,2122326385,-21.0657,-129.352,256.708
933196,2122335632,-21.7508,-123.217,257.034
933197,2122344927,-22.4756,-117.638,257.886
933198,2122354099,-23.1911,-111.706,258.66
933199,2122363341,-23.7928,-105.608,259.479
933200,2122372556,-24.464,-99.1319,260.197
933201,2122381769,-24.8031,-92.7174,260.181
933202,2122391059,-25.2594,-86.2654,260.529
933203,2122400261,-25.885,-79.7298,261.261
933204,2122409527,-26.303,-73.1231,261.863
933205,2122418717,-26.751,-66.6792,262.236
933206,2122427960,-26.9842,-60.4438,262.291
933207,2122437216,-27.1016,-54.2674,262.253
933208,2122446420,-27.2285,-47.7374,262.259
933209,2122455630,-27.5002,-41.2748,262.147
933210,2122464898,-27.6876,-34.4687,261.915
933211,2122474068,-27.7641,-28.0737,261.49
933212,2122483318,-27.8241,-20.9943,261.279
933213,2122492582,-27.8449,-14.1428,260.914
933214,2122501837,-27.8025,-7.25249,260.54
933215,2122511064,-27.6998,-0.805245,260.229
933216,2122520367,-27.4583,5.03441,259.594
933217,2122529506,-27.1932,11.0182,258.844
933218,2122538700,-26.9673,17.0745,258.154
933219,2122548006,-26.703,23.4777,257.633
933220,2122557145,-26.3088,29.6193,257.206
933221,2122566355,-25.9555,35.4336,256.456
933222,2122575605,-25.3566,40.8968,255.72
933223,2122584902,-24.78,45.7507,254.883
933224,2122594147,-24.0923,50.0776,254.058
933225,2122603372,-23.4794,54.9451,253.119
933226,2122612490,-22.7209,58.8917,252.486
933227,2122621810,-21.8602,62.619,251.773
933228,2122631052,-21.0946,65.6877,251.181
933229,2122640309,-20.5279,67.4756,250.73
933230,2122649506,-19.9975,69.4378,250.417
933231,2122658685,-19.5161,70.5324,250.247
933232,2122667910,-19.1862,71.1577,250.153
933233,2122677193,-18.9444,71.5816,250.146
933234,2122686420,-18.8518,71.6469,250.187
933235,2122695580,-18.7546,71.6324,250.284
933236,2122704841,-18.533,70.9976,250.559
933237,2122714047,-18.4217,70.051,250.886
933238,2122723331,-18.5256,67.3433,251.495
933239,2122732567,-18.8109,63.8784,252.474
933240,2122741737,-19.2091,59.8395,253.098
933241,2122751044,-19.7285,55.5891,253.812
933242,2122760201,-20.2808,50.9567,254.485
933243,2122769481,-20.8027,45.9673,255.204
933244,2122778656,-21.4191,40.7858,255.951
933245,2122787953,-22.0075,35.34,256.602
933246,2122797187,-22.7233,29.4356,257.533
933247,2122806389,-23.2352,23.2238,258.35
933248,2122815618,-23.8193,16.7339,259.142
933249,2122824831,-24.2645,9.76264,259.93
933250,2122834036,-24.6067,2.72451,260.705
933251,2122843323,-24.8268,-4.82874,261.231
933252,2122852579,-24.9739,-12.4523,261.907
933253,2122861750,-25.0656,-20.3118,262.534
933254,2122889410,-26.6753,-41.7958,265.433
933255,2122898626,-26.3217,-48.9485,265.647
933256,2122907884,-25.705,-57.0483,265.699
933257,2122917186,-25.0136,-65.8305,265.403
933258,2122926373,-24.255,-74.0282,264.885
933259,2122935563,-23.6052,-81.4821,264.503
933260,2122944851,-22.8916,-88.3852,264.104
933261,2122954081,-22.0468,-95.4024,263.676
933262,2122963310,-21.2439,-102.073,263.249
933263,2122972504,-20.587,-108.518,263.161
933264,2122981727,-19.8512,-114.989,262.682
933265,2122991016,-19.032,-120.873,262.794
933266,2123000254,-18.1352,-127.03,262.454
933267,2123009424,-17.5494,-133.176,261.996
933268,2123018671,-16.9983,-138.867,261.599
933269,2123027868,-16.3337,-144.474,261.779
933270,2123037123,-15.4334,-149.493,260.625
933271,2123046369,-15.1691,-154.473,259.695
933272,2123055602,-14.7208,-158.233,257.703
933273,2123064813,-14.4205,-160.195,256.47
933274,2123074046,-14.5684,-164.894,256.982
933275,2123083258,-14.333,-169.881,258.333
933276,2123092535,-14.6214,-174.205,260.008
933277,2123101764,-15.1027,-179.642,260.301
933278,2123111017,-15.0672,-183.251,260.167
933279,2123120178,-15.13,-187.54,259.149
933280,2123129455,-15.6068,-189.835,257.966
933281,2123138657,-15.8152,-192.221,258.801
933282,2123147907,-16.2646,-194.081,259.748
933283,2123157109,-16.4611,-195.421,260.688
933284,2123166382,-16.7478,-196.364,261.135
933285,2123175600,-17.1642,-197.578,261.549
933286,2123184840,-17.4657,-198.19,261.551
933287,2123193999,-17.6462,-198.492,261.358
933288,2123203290,-18.2529,-198.742,262.244
933289,2123212464,-18.7043,-198.677,262.845
933290,2123221708,-19.0005,-198.34,262.782
933291,2123230965,-19.3185,-195.645,262.597
933292,2123240134,-19.6852,-191.705,263.335
933293,2123249455,-19.8873,-188.63,262.952
933294,2123258649,-20.4163,-185.016,263.688
933295,2123267910,-20.6253,-180.932,264.571
933296,2123277096,-20.7125,-175.165,264.131
933297,2123286356,-20.9364,-169.747,264.045
933298,2123295482,-20.9718,-165.006,264.231
933299,2123304833,-21.4415,-160.422,265.083
933300,2123314011,-21.7257,-156.28,265.986
933301,2123323252,-21.9184,-151.075,265.79
933302,2123332437,-22.125,-145.908,265.999
933303,2123341756,-22.686,-139.544,266.57
933304,2123350995,-23.032,-133.425,266.988
933305,2123360186,-23.3927,-127.526,267.203
933306,2123369409,-23.9071,-120.942,267.692
933307,2123378610,-24.2667,-114.453,267.568
933308,2123387871,-24.587,-107.793,267.634
933309,2123397060,-24.6875,-101.34,266.929
933310,2123406238,-25.0278,-94.727,266.978
933311,2123415573,-25.374,-87.6722,267.701
933312,2123424753,-25.6117,-81.3643,268.265
933313,2123434013,-25.9347,-74.6511,268.611
933314,2123443199,-26.131,-67.815,268.622
933315,2123452478,-26.6411,-60.5638,268.337
933316,2123461707,-26.7826,-53.9309,268.121
933317,2123470895,-27.0632,-46.9103,268.011
933318,2123480158,-27.1763,-40.1495,267.486
933319,2123489385,-27.4672,-33.3548,266.862
933320,2123498618,-27.5959,-26.699,266.367
933321,2123507856,-27.6996,-19.9284,265.796
933322,2123517096,-27.778,-12.8019,265.167
933323,2123526302,-27.7039,-6.08964,264.468
933324,2123535489,-27.5769,0.198006,263.881
933325,2123544695,-27.4231,6.25356,262.976
933326,2123554037,-27.225,12.0102,261.912
933327,2123563220,-27.1105,18.3885,261.067
933328,2123572487,-26.8757,24.3397,259.978
933329,2123581699,-26.5517,30.1434,259.026
933330,2123590926,-25.9967,35.4806,257.947
933331,2123600119,-25.4024,40.5983,256.986
933332,2123609334,-24.902,45.9275,255.915
933333,2123618618,-24.1581,50.706,255.012
933334,2123627840,-23.3925,55.3242,254.239
933335,2123637035,-22.6493,59.1774,253.483
933336,2123646307,-21.774,62.6722,252.788
933337,2123655545,-21.027,65.4377,252.226
933338,2123664790,-20.528,67.8,251.817
933339,2123674012,-20.0371,69.6006,251.541
933340,2123683217,-19.6926,70.4913,251.363
933341,2123692452,-19.4606,70.9627,251.301
933342,2123701674,-19.3184,71.3281,251.307
933343,2123710846,-19.2204,71.5522,251.316
933344,2123720219,-19.2107,71.565,251.352
933345,2123729278,-19.2483,71.337,251.514
933346,2123738588,-19.4246,70.0531,251.899
933347,2123747794,-20.0492,67.5134,252.381
933348,2123757065,-20.473,64.1578,253.071
933349,2123766268,-21.0355,60.8653,253.398
933350,2123775453,-21.6379,57.6424,253.741
933351,2123784769,-22.2938,53.8053,254.073
933352,2123793971,-22.8817,49.7113,254.356
933353,2123803203,-23.3773,45.171,254.576
933354,2123812379,-23.8139,40.376,254.755
933355,2123821677,-24.2958,35.5615,254.94
933356,2123831001,-24.7405,30.1154,255.1
933357,2123840116,-25.0677,24.6847,255.215
933358,2123849346,-25.3769,19.1672,255.289
933359,2123858578,-25.5776,13.4488,255.444
933360,2123867881,-25.7604,7.71694,255.684
933361,2123877049,-25.9075,1.61645,255.781
933362,2123886312,-25.8736,-5.12346,255.806
933363,2123895382,-25.7082,-11.4404,255.877
933364,2123904666,-25.667,-17.8766,255.692
933365,2123913984,-25.6655,-24.5187,255.566
933366,2123923093,-25.36,-31.3871,255.546
933367,2123932408,-25.0516,-38.4443,255.346
933368,2123941669,-24.6843,-45.7435,255.38
933369,2123950910,-24.1302,-52.897,255.53
933370,2123960108,-23.5953,-59.8766,255.451
933371,2123969288,-23.0507,-66.7498,255.446
933372,2123978523,-22.1336,-73.7694,255.342
933373,2123987778,-21.217,-80.7827,254.512
933374,2123996979,-20.7733,-87.2638,254.204
933375,2124006201,-20.2233,-93.658,254.21
933376,2124015497,-19.5499,-100.109,254.016
933377,2124024702,-18.8943,-106.474,253.771
933378,2124033917,-18.0201,-112.655,253.406
933379,2124061629,-16.6562,-128.268,254.047
933380,2124070802,-15.9717,-133.221,253.439
933381,2124080070,-15.3215,-138.801,252.27
933382,2124089317,-14.6266,-144.473,250.168
933383,2124098549,-13.8639,-150.769,248.651
933384,2124107847,-13.4739,-156.742,248.287
933385,2124117039,-13.2507,-161.737,246.382
933386,2124126278,-13.2505,-167.289,246.978
933387,2124135507,-13.5987,-172.327,246.767
933388,2124144652,-13.7281,-177.847,247.979
933389,2124153896,-13.8694,-183.38,248.527
933390,2124163183,-13.647,-188.521,248.958
933391,2124172406,-13.1225,-192.929,248.778
933392,2124181599,-12.7733,-196.807,248.065
933393,2124190879,-12.9214,-199.015,245.958
933394,2124200047,-12.912,-200.317,244.795
933395,2124209320,-12.7168,-203.479,245.002
933396,2124218552,-12.3501,-206.67,244.651
933397,2124227717,-12.32,-208.375,244.558
933398,2124237034,-12.1847,-209.399,243.727
933399,2124246221,-11.9993,-210.462,243.486
933400,2124255452,-11.9977,-211.064,243.44
933401,2124264637,-11.9467,-211.405,243.133
933402,2124273923,-12.0579,-211.091,242.848
933403,2124283229,-12.1365,-210.319,243.053
933404,2124292336,-12.0509,-209.153,243.116
933405,2124301603,-11.9641,-206.214,242.997
933406,2124310831,-12.1337,-202.531,243.435
933407,2124320300,-12.014,-198.312,243.755
933408,2124329244,-11.883,-194.407,243.711
933409,2124338506,-11.6427,-190.631,244.335
