%frameid,time(us),x(mm),y(mm),z(mm) 
5367252,-33647736,-0.875381,-130.219,346.888,1
5367253,-33636791,-0.846148,-130.256,346.93,1
5367254,-33625841,-0.819128,-130.291,346.966,1
5367255,-33614894,-0.79289,-130.325,347.002,1
5367256,-33603921,-0.774078,-130.359,347.039,1
5367257,-33592997,-0.753635,-130.393,347.073,1
5367258,-33582027,-0.729641,-130.426,347.106,1
5367259,-33571048,-0.708295,-130.459,347.136,1
5367260,-33560099,-0.685347,-130.498,347.166,1
5367261,-33527227,-0.646935,-130.567,347.211,1
5367262,-33516245,-0.632582,-130.592,347.223,1
5367263,-33505286,-0.61163,-130.639,347.252,1
5367264,-33494347,-0.589613,-130.678,347.277,1
5367265,-33483413,-0.553834,-130.756,347.345,1
5367266,-33472425,-0.523746,-130.811,347.387,1
5367267,-33461487,-0.505122,-130.858,347.428,1
5367268,-33450534,-0.49185,-130.848,347.433,1
5367269,-33439555,-0.477332,-130.795,347.504,1
5367270,-33428612,-0.46367,-130.708,347.585,1
5367271,-33417632,-0.425752,-130.538,347.658,1
5367272,-33406643,-0.549401,-129.974,347.918,1
5367273,-33395731,-0.628636,-129.151,348.263,1
5367274,-33384782,-0.649294,-128.398,348.332,1
5367275,-33373798,-0.686095,-127.311,348.375,1
5367276,-33362856,-0.766782,-126.127,348.274,1
5367277,-33351890,-0.975022,-124.268,348.26,1
5367278,-33340955,-1.04314,-122.73,348.267,1
5367279,-33330007,-1.08178,-121.2,348.21,1
5367280,-33319040,-1.33943,-119.308,347.857,1
5367281,-33308048,-1.52766,-116.582,347.386,1
5367282,-33297103,-1.64971,-113.923,346.886,1
5367283,-33286174,-2.38784,-110.722,346.849,1
5367284,-33275204,-3.14175,-106.732,346.239,1
5367285,-33264250,-3.40112,-103.647,345.262,1
5367286,-33253253,-3.75298,-101.041,344.441,1
5367287,-33242315,-4.46774,-96.7878,343.746,1
5367288,-33231389,-5.05069,-91.8015,342.706,1
5367289,-33220441,-5.59117,-86.4594,342.047,1
5367290,-33209439,-6.15464,-81.5728,340.978,1
5367291,-33198517,-6.58865,-76.6948,339.597,1
5367292,-33187523,-6.93417,-71.7667,338.221,1
5367293,-33176581,-7.44531,-66.1684,336.611,1
5367294,-33165657,-7.82068,-61.11,334.548,1
5367295,-33154671,-8.19198,-55.854,332.741,1
5367296,-33143722,-8.75704,-50.0983,330.325,1
5367297,-33132752,-9.04134,-44.5528,327.864,1
5367298,-33121825,-9.49749,-38.4984,325.82,1
5367299,-33110851,-9.77143,-33.0794,323.009,1
5367300,-33099870,-10.1555,-27.218,320.037,1
5367301,-33088946,-10.6754,-21.5344,318.137,1
5367302,-33077996,-11.0309,-15.3913,314.459,1
5367303,-33067023,-11.0564,-9.86514,310.6,1
5367304,-33056050,-11.3763,-3.84173,306.441,1
5367305,-33045097,-11.7694,2.11843,301.351,1
5367306,-33034148,-11.9007,7.92675,296.934,1
5367307,-33023187,-12.1682,13.7922,292.255,1
5367308,-33012213,-12.3411,19.4201,287.699,1
5367309,-33001273,-12.4769,24.441,283.514,1
5367310,-32990297,-12.8101,29.3723,278.822,1
5367311,-32979369,-13.0289,34.0999,273.916,1
5367312,-32968372,-13.0721,38.6045,268.735,1
5367313,-32957429,-13.2645,42.9132,263.162,1
5367314,-32946486,-13.2848,46.6768,258.058,1
5367315,-32935525,-13.1624,50.4934,252.979,1
5367316,-32924553,-13.3061,53.6061,248.029,1
5367317,-32913607,-13.4517,57.1069,243.451,1
5367318,-32902628,-13.8293,60.5175,238.407,1
5367319,-32891696,-14.0141,63.5069,234.038,1
5367320,-32880727,-14.0722,66.7795,230.702,1
5367321,-32869745,-13.8659,70.6146,227.319,1
5367322,-32858837,-13.72,74.3098,225.061,1
5367323,-32847830,-13.6789,77.176,222.284,1
5367324,-32836910,-13.6341,79.2621,219.743,1
5367325,-32825895,-13.9476,80.9837,217.512,1
5367326,-32814992,-14.1084,82.4919,215.575,1
5367327,-32804037,-14.1809,83.1712,214.703,1
5367328,-32793068,-14.1906,83.479,214.028,1
5367329,-32782133,-14.474,83.5985,213.464,1
5367330,-32771161,-14.8608,83.5907,213.161,1
5367331,-32760192,-15.3082,83.8274,212.495,1
5367332,-32749203,-15.5083,82.6501,212.104,1
5367333,-32738256,-15.8121,81.1329,211.864,1
5367334,-32727318,-16.2531,79.8788,211.896,1
5367335,-32716340,-16.6312,78.8939,211.985,1
5367336,-32705379,-16.9108,78.2022,212.123,1
5367337,-32694445,-17.326,77.5168,212.344,1
5367338,-32683475,-17.5571,76.8048,212.627,1
5367339,-32672505,-17.7141,76.2882,212.85,1
5367340,-32661573,-18.0457,75.1137,214.072,1
5367341,-32650630,-18.3003,73.4299,215.908,1
5367342,-32639696,-18.2996,71.5164,217.904,1
5367343,-32628691,-17.9883,69.5879,219.996,1
5367344,-32617748,-17.9646,68.6729,221.219,1
5367345,-32606793,-17.9157,68.1341,222.054,1
5367346,-32595821,-17.9317,66.9293,223.718,1
5367347,-32584854,-17.6081,65.5004,225.713,1
5367348,-32573903,-17.127,63.9797,227.779,1
5367349,-32562937,-16.1541,61.1409,231.003,1
5367350,-32552007,-15.38,59.4563,232.87,1
5367351,-32541054,-15.2503,58.5508,235.06,1
5367352,-32530021,-15.328,57.5784,237.481,1
5367353,-32519145,-15.3274,56.789,240.024,1
5367354,-32508166,-16.1979,56.5058,242.062,1
5367355,-32497227,-17.2446,56.312,243.648,1
5367356,-32486271,-19.4013,55.674,247.876,1
5367357,-32475299,-21.452,54.7384,252.048,1
5367358,-32464325,-23.674,53.3112,255.935,1
5367359,-32453377,-27.1754,48.7879,265.142,1
5367360,-32442424,-28.6972,44.29,272.599,1
5367361,-32431499,-30.7033,41.2991,276.467,1
5367362,-32420511,-32.6918,39.7141,279.968,1
5367363,-32409548,-34.4306,38.1092,284.376,1
5367364,-32398573,-36.0025,37.7335,286.191,1
5367365,-32387662,-37.5054,39.0394,286.989,1
5367366,-32376674,-38.3205,39.8132,287.471,1
5367367,-32365724,-38.3098,37.522,293.11,1
5367368,-32354780,-37.6181,33.4397,297.161,1
5367369,-32343815,-37.9235,29.8909,300.486,1
5367370,-32332859,-37.5995,25.0514,303.378,1
5367371,-32321887,-37.2269,20.2782,305.897,1
5367372,-32310926,-37.6268,14.7176,310.695,1
5367373,-32299991,-37.44,9.28352,314.722,1
5367374,-32289055,-38.2024,6.31411,316.956,1
5367375,-32278046,-36.8963,-4.7681,321.872,1
5367376,-32267108,-37.62,-17.0068,326.813,1
5367377,-32256154,-38.6713,-24.9613,330.153,1
5367378,-32245180,-40.2531,-29.6848,332.541,1
5367379,-32234242,-41.2126,-31.6429,334.251,1
5367380,-32223288,-39.7736,-40.8999,339.928,1
5367381,-32212342,-38.4875,-47.8317,343.092,1
5367382,-32201379,-38.8396,-51.7558,344.751,1
5367383,-32190413,-27.3122,-92.6596,335.125,1
5367384,-32179427,-23.1952,-112.9,331.264,1
5367385,-32168481,-21.4081,-122.574,330.162,1
5367386,-32135636,-23.2012,-131.123,333.041,1
5367387,-32124655,-23.9898,-132.137,333.884,1
5367388,-32113694,-25.2424,-133.358,335.07,1
5367389,-32102750,-26.3169,-134.912,335.604,1
5367390,-32091779,-26.9938,-136.114,337.267,1
5367391,-32080819,-28.0025,-137.305,339.403,1
5367392,-32069880,-28.8089,-138.601,340.973,1
5367393,-32058905,-29.9525,-140.892,342.669,1
5367394,-32047924,-30.4969,-141.983,343.476,1
5367395,-32037014,-30.8989,-142.515,343.884,1
5367396,-32026033,-31.3597,-143.428,343.943,1
5367397,-32015074,-31.7715,-144.003,344.128,2
5367398,-32004154,-32.5553,-145.061,344.624,2
5367399,-31993178,-33.0444,-145.721,344.934,2
5367400,-31982201,-33.5891,-146.307,345.335,2
5367401,-31971242,-34.1636,-147.572,346.299,2
5367402,-31960300,-34.5066,-148.327,346.874,2
5367403,-31949330,-34.6839,-148.718,347.172,2
5367404,-31938376,-34.787,-148.945,347.345,2
5367405,-31927450,-35.0558,-149.258,347.603,2
5367406,-31916467,-34.3926,-152.672,347.88,2
5367407,-31905509,-34.1765,-154.548,348.075,2
5367408,-31894557,-34.2172,-155.499,348.314,2
5367409,-31883623,-34.2691,-156.106,348.468,2
5367410,-31872651,-34.2508,-156.796,348.484,2
5367411,-31861684,-34.6348,-160.286,348.409,2
5367412,-31850720,-34.635,-162.316,348.476,2
5367413,-31828787,-34.5796,-163.48,348.468,2
5367414,-31817866,-34.4992,-163.821,348.436,2
5367415,-31806914,-34.2841,-164.573,348.298,2
5367416,-31795956,-33.9882,-165.091,348.234,2
5367417,-31784991,-33.9535,-165.059,348.308,2
5367418,-31774020,-33.7751,-164.886,348.256,2
5367419,-31763062,-33.5449,-164.377,348.275,2
5367420,-31752093,-33.1152,-162.822,347.817,2
5367421,-31741169,-32.8729,-161.229,347.523,2
5367422,-31730189,-32.5716,-159.704,347.135,2
5367423,-31719240,-32.169,-158.356,346.526,2
5367424,-31708304,-31.931,-155.66,345.762,2
5367425,-31697306,-31.0935,-153.367,344.973,2
5367426,-31686343,-30.9917,-149.958,344.89,2
5367427,-31675414,-30.8709,-148.38,344.5,2
5367428,-31664424,-30.2189,-146.748,343.608,2
5367429,-31653508,-29.8741,-145.458,342.909,2
5367430,-31642538,-29.2374,-144.067,341.951,2
5367431,-31631553,-28.518,-142.395,341.013,2
5367432,-31620617,-28.0424,-139.685,339.977,2
5367433,-31609663,-27.3864,-137.372,338.695,2
5367434,-31598684,-27.2697,-134.901,337.473,2
5367435,-31587747,-26.6715,-131.109,335.63,2
5367436,-31576813,-26.387,-128.852,333.568,2
5367437,-31565822,-26.3216,-124.624,331.788,2
5367438,-31554908,-26.4266,-120.777,330.1,2
5367439,-31543933,-26.2029,-115.834,327.914,2
5367440,-31532951,-26.0954,-111.557,326.078,2
5367441,-31521977,-26.0011,-106.201,324.455,2
5367442,-31511063,-25.2556,-101.774,322.214,2
5367443,-31500112,-25.3998,-97.1426,320.325,2
5367444,-31489131,-26.0121,-90.4038,319.04,2
5367445,-31478167,-26.4428,-83.5422,317.677,2
5367446,-31467212,-26.6182,-76.9069,317.252,2
5367447,-31456262,-26.7157,-72.0909,315.652,2
5367448,-31445331,-27.5092,-65.2524,313.274,2
5367449,-31434334,-28.1648,-57.6239,310.538,2
5367450,-31423384,-28.6011,-51.6603,308.449,2
5367451,-31412411,-28.8673,-44.8354,306.017,2
5367452,-31401464,-30.3835,-37.4422,306.139,2
5367453,-31390509,-30.4039,-30.2721,304.98,2
5367454,-31379559,-30.0906,-23.3335,302.509,2
5367455,-31368578,-30.197,-17.7423,300.342,2
5367456,-31357635,-30.3188,-12.101,297.12,2
5367457,-31346687,-30.5696,-5.46784,293.126,2
5367458,-31335736,-30.7861,0.75783,289.466,2
5367459,-31324732,-30.7962,5.59967,286.073,2
5367460,-31313816,-30.8993,10.1993,282.36,2
5367461,-31302866,-31.1775,15.8883,278.104,2
5367462,-31291886,-31.1291,21.4169,274.076,2
5367463,-31280956,-31.3517,27.2889,269.994,2
5367464,-31269993,-31.2291,32.2833,266.063,2
5367465,-31259030,-32.377,42.642,255.315,2
5367466,-31248052,-29.3818,50.5205,249.006,2
5367467,-31237112,-27.9495,57.188,244.032,2
5367468,-31226176,-26.9411,62.9353,238.861,2
5367469,-31215223,-26.3088,67.0921,234.295,2
5367470,-31204263,-26.0816,71.3158,229.937,2
5367471,-31193313,-25.4323,75.0163,225.343,2
5367472,-31182332,-25.2948,78.9511,221.424,2
5367473,-31171379,-25.244,81.7998,217.869,2
5367474,-31160436,-25.2841,85.1411,214.393,2
5367475,-31149441,-25.6743,86.9728,211.964,2
5367476,-31138508,-26.2701,90.6169,209.439,2
5367477,-31127563,-25.8887,93.0624,207.525,2
5367478,-31116551,-25.4972,93.9902,206.378,2
5367479,-31105606,-25.3321,93.8779,205.72,2
5367480,-31094689,-25.6605,92.5233,205.704,2
5367481,-31083706,-25.8925,90.1558,205.358,2
5367482,-31072758,-26.2272,87.6723,205.175,2
5367483,-31061791,-26.3186,84.9365,204.276,2
5367484,-31050814,-26.4147,83.6293,203.628,2
5367485,-31039856,-26.5284,82.9233,203.26,2
5367486,-31028932,-26.5891,82.5467,203.063,2
5367487,-31017963,-26.6278,82.4353,202.94,2
5367488,-31006993,-26.5142,82.3087,203.039,2
5367489,-30996048,-26.5084,82.2735,203.04,2
5367490,-30985065,-26.5127,82.2549,203.043,2
5367491,-30974160,-26.5367,82.194,203.133,2
5367492,-30963163,-26.4989,82.0593,203.385,2
5367493,-30952217,-26.4763,81.8208,203.69,2
5367494,-30941233,-26.2416,81.3485,204.58,2
5367495,-30930283,-25.9574,80.9535,205.565,2
5367496,-30919341,-25.6693,80.7968,206.889,2
5367497,-30908355,-25.0356,79.5841,209.782,2
5367498,-30897436,-24.6923,78.424,211.86,2
5367499,-30886456,-24.294,77.4555,213.986,2
5367500,-30875510,-23.9901,75.0636,217.988,2
5367501,-30864512,-23.7151,73.9042,221.126,2
5367502,-30853590,-23.8564,72.3697,223.703,2
5367503,-30842657,-23.965,70.8108,226.302,2
5367504,-30831705,-23.4295,66.9039,231.168,2
5367505,-30820703,-22.891,64.6229,234.578,2
5367506,-30809781,-22.9619,61.9216,238.725,2
5367507,-30798824,-22.5184,59.3236,242.737,2
5367508,-30787858,-21.8136,54.7396,247.566,2
5367509,-30776878,-21.9501,51.7946,251.2,2
5367510,-30744031,-29.6811,47.2538,255.286,2
5367511,-30733076,-30.6921,47.3169,257.301,2
5367512,-30722075,-31.6982,48.173,259.025,2
5367513,-30711163,-32.4157,49.3275,260.563,2
5367514,-30700211,-35.058,51.0477,265.35,2
5367515,-30689250,-37.0273,52.9861,270.519,2
5367516,-30678290,-38.4329,53.4767,274.97,2
5367517,-30667291,-39.3827,54.0045,277.894,2
5367518,-30656369,-41.2612,47.5975,284.755,2
5367519,-30645399,-42.6171,44.8267,288.788,2
5367520,-30634411,-42.7408,41.3092,292.948,2
5367521,-30623501,-41.2936,34.3744,298.488,2
5367522,-30612548,-40.7763,29.8618,303.038,2
5367523,-30601563,-40.8312,25.6916,306.204,2
5367524,-30590608,-39.0162,16.5616,308.424,2
5367525,-30579649,-38.9772,11.9672,309.653,2
5367526,-30568706,-38.0383,1.03004,312.493,2
5367527,-30557712,-39.0129,-4.82268,314.15,2
5367528,-30546790,-38.4871,-14.8394,317.421,2
5367529,-30535822,-39.0152,-29.0672,322.428,2
5367530,-30524861,-41.3709,-39.5978,326.702,2
5367531,-30513923,-44.0237,-45.0518,330.18,2
5367532,-30502939,-33.319,-88.6255,325.278,2
5367533,-30491996,-29.1239,-109.291,322.802,2
5367534,-30481045,-27.8131,-119.125,323.08,2
5367535,-30470036,-26.9393,-124.36,324.063,2
5367536,-30459149,-28.77,-128.36,327.461,2
5367537,-30448190,-30.1707,-130.483,329.57,2
5367538,-30437182,-31.3669,-132.123,333.206,2
5367539,-30426265,-26.251,-151.773,329.72,2
5367540,-30415303,-26.6559,-161.345,330.416,2
5367541,-30404312,-26.7755,-166.02,330.834,2
5367542,-30393392,-26.5119,-167.834,331.413,2
5367543,-30382420,-26.315,-169.2,331.921,2
5367544,-30371442,-26.8889,-170.775,333.118,2
5367545,-30360487,-27.4871,-171.805,334.148,2
5367546,-30349575,-27.7831,-172.314,334.658,2
5367547,-30338561,-28.8751,-173.054,337.069,2
5367548,-30327640,-29.8947,-173.994,338.618,2
5367549,-30316673,-30.6351,-174.619,339.171,2
5367550,-30305690,-31.0283,-174.982,339.537,2
5367551,-30294765,-31.3335,-175.238,339.806,2
5367552,-30283800,-31.4991,-175.6,340.129,3
5367553,-30272824,-31.6622,-175.881,340.37,3
5367554,-30261902,-31.8111,-176.093,340.529,3
5367555,-30250932,-32.0219,-176.202,340.609,3
5367556,-30239976,-32.1654,-176.28,340.672,3
5367557,-30229016,-32.2212,-176.331,340.686,3
5367558,-30218038,-32.2212,-176.333,340.685,3
5367559,-30207075,-32.2555,-176.33,340.667,3
5367560,-30196166,-32.1836,-176.396,340.524,3
5367561,-30185170,-32.0629,-176.352,340.401,3
5367562,-30174224,-31.9183,-176.204,340.24,3
5367563,-30163267,-31.6977,-176.245,340.009,3
5367564,-30152291,-31.0365,-176.827,338.974,3
5367565,-30141369,-30.4848,-177.193,338.333,3
5367566,-30130374,-30.1379,-177.348,337.934,3
5367567,-30119442,-29.8251,-177.319,337.587,3
5367568,-30108484,-29.5573,-177.318,337.392,3
5367569,-30097537,-29.3274,-177.31,337.218,3
5367570,-30086554,-29.2176,-177.299,337.087,3
5367571,-30075637,-29.009,-177.229,336.847,3
5367572,-30064638,-28.7978,-177.165,336.618,3
5367573,-30053670,-28.6269,-177.091,336.43,3
5367574,-30042745,-28.4381,-177.023,336.317,3
5367575,-30031820,-28.3032,-176.888,336.118,3
5367576,-30020831,-28.1422,-176.368,335.907,3
5367577,-30009867,-27.8238,-175.623,335.688,3
5367578,-29998899,-27.4686,-174.849,335.488,3
5367579,-29987923,-27.1737,-173.853,335.207,3
5367580,-29976993,-26.3595,-172.508,334.576,3
5367581,-29966050,-25.2793,-170.584,333.087,3
5367582,-29955090,-24.4593,-165.895,330.908,3
5367583,-29944125,-23.7836,-162.874,329.049,3
5367584,-29933176,-24.0525,-157.564,327.472,3
5367585,-29922194,-24.6685,-149.332,329.564,3
5367586,-29911258,-25.2141,-142.58,330.442,3
5367587,-29900300,-24.4892,-138.102,328.717,3
5367588,-29889325,-23.7778,-135.574,326.74,3
5367589,-29878376,-23.2515,-132.761,325.165,3
5367590,-29867434,-24.248,-127.454,324.54,3
5367591,-29856464,-24.2499,-121.575,323.848,3
5367592,-29845518,-24.5963,-116.003,322.973,3
5367593,-29834523,-24.5091,-110.441,322.112,3
5367594,-29823560,-24.4113,-104.876,320.64,3
5367595,-29812650,-24.7043,-100.645,319.627,3
5367596,-29801674,-20.0576,-85.1718,324.472,3
5367597,-29790722,-19.2402,-74.5819,329.377,3
5367598,-29779768,-19.1682,-67.2966,331.102,3
5367599,-29768776,-18.6199,-60.6238,330.421,3
5367600,-29757809,-18.3401,-53.955,328.055,3
5367601,-29746887,-17.6154,-48.9938,325.051,3
5367602,-29735897,-17.2914,-44.2036,321.855,3
5367603,-29724940,-16.4704,-39.8451,318.584,3
5367604,-29714028,-16.1618,-33.9016,314.988,3
5367605,-29703063,-16.0998,-27.9275,311.455,3
5367606,-29692091,-15.5763,-23.6214,308.095,3
5367607,-29681155,-15.7886,-17.0824,305.979,3
5367608,-29670184,-15.693,-6.34763,302.99,3
5367609,-29659233,-15.5447,2.7019,299.292,3
5367610,-29648258,-15.5745,9.03184,295.693,3
5367611,-29637297,-15.3224,13.1367,292.463,3
5367612,-29626374,-14.8934,16.0694,289.255,3
5367613,-29615424,-14.7009,20.043,285.213,3
5367614,-29604457,-14.5956,25.2236,280.852,3
5367615,-29593452,-14.3486,29.0049,276.68,3
5367616,-29582537,-14.3552,32.4701,272.72,3
5367617,-29571576,-14.3735,36.5347,268.883,3
5367618,-29560596,-14.6526,40.1714,264.468,3
5367619,-29549657,-14.8558,44.0661,260.161,3
5367620,-29538672,-14.8828,49.4885,254.308,3
5367621,-29527724,-15.0803,52.7901,250.103,3
5367622,-29516805,-15.2513,55.4486,246.056,3
5367623,-29505830,-15.2946,58.3515,242.35,3
5367624,-29494853,-15.3948,61.4806,238.117,3
5367625,-29483909,-15.9274,64.5067,234.619,3
5367626,-29472978,-16.168,66.3846,231.358,3
5367627,-29462001,-16.1675,69.4902,227.25,3
5367628,-29451043,-16.2733,72.2864,223.712,3
5367629,-29440076,-16.2536,74.6373,220.445,3
5367630,-29429126,-16.0328,77.8978,216.547,3
5367631,-29418185,-15.939,80.0687,213.165,3
5367632,-29407229,-15.8701,81.5792,210.544,3
5367633,-29396252,-15.843,82.833,207.893,3
5367634,-29385312,-15.6637,83.7759,205.33,3
5367635,-29352427,-15.4394,86.3613,199.208,3
5367636,-29341444,-15.531,86.3998,198.477,3
5367637,-29330518,-15.583,86.5414,198.094,3
5367638,-29319525,-15.6311,86.7056,197.712,3
5367639,-29308540,-15.6806,86.855,197.467,3
5367640,-29297617,-15.7523,86.8895,197.246,3
5367641,-29286685,-15.9106,86.8451,197.064,3
5367642,-29275700,-16.0342,86.8104,196.922,3
5367643,-29264781,-16.2373,86.7895,196.775,3
5367644,-29253816,-16.4061,86.7764,196.691,3
5367645,-29242814,-16.6638,86.7412,196.645,3
5367646,-29231877,-16.8077,86.7589,196.689,3
5367647,-29220934,-17.1257,86.7666,196.874,3
5367648,-29209976,-17.3772,86.7726,197.021,3
5367649,-29199037,-18.1793,86.5214,198.194,3
5367650,-29188066,-19.0148,86.1695,199.186,3
5367651,-29177112,-20.3886,84.9984,201.153,3
5367652,-29166129,-22.3983,82.3152,203.93,3
5367653,-29155199,-23.1658,79.8744,206.051,3
5367654,-29144243,-23.3253,76.9915,208.639,3
5367655,-29133268,-22.9219,74.0038,211.252,3
5367656,-29122308,-22.462,72.0667,213.601,3
5367657,-29111338,-22.1399,70.8673,215.518,3
5367658,-29100406,-21.8863,69.3105,217.453,3
5367659,-29089435,-21.5252,68.3402,218.733,3
5367660,-29078508,-20.3419,66.8323,220.588,3
5367661,-29067554,-19.6983,66.0368,221.609,3
5367662,-29056581,-19.4271,65.8263,223.272,3
5367663,-29045595,-19.1917,64.8108,226.994,3
5367664,-29034649,-19.4233,64.4535,229.284,3
5367665,-29023699,-20.0241,64.3865,231.353,3
5367666,-29012719,-20.9522,64.3274,232.899,3
5367667,-29001788,-21.8306,64.232,234.042,3
5367668,-28990800,-23.003,64.1773,235.33,3
5367669,-28979833,-26.0871,63.6396,239.654,3
5367670,-28968935,-28.5474,63.4569,242.575,3
5367671,-28957960,-31.5203,64.3394,248.285,3
5367672,-28946984,-33.9551,64.2214,253.077,3
5367673,-28936060,-35.4142,64.1348,256.398,3
5367674,-28925075,-37.5981,63.9831,261.245,3
5367675,-28914125,-39.6615,64.6279,264.444,3
5367676,-28903127,-40.3963,64.8576,265.583,3
5367677,-28892199,-40.35,62.4551,270.984,3
5367678,-28881253,-39.858,58.6165,275.35,3
5367679,-28870276,-40.0207,56.7688,277.442,3
5367680,-28859324,-40.2777,54.604,280.714,3
5367681,-28848402,-39.7741,47.0239,286.712,3
5367682,-28837437,-36.9704,31.7872,291.969,3
5367683,-28826455,-37.6301,19.2328,300.67,3
5367684,-28815522,-40.5082,10.2518,307.383,3
5367685,-28804559,-42.4929,1.61657,313.073,3
5367686,-28793579,-44.5612,-3.84983,317.165,3
5367687,-28782606,-46.3611,-7.12484,322.209,3
5367688,-28771648,-47.8086,-8.57175,327.088,3
5367689,-28760721,-46.1021,-16.9421,334.029,3
5367690,-28749765,-46.3806,-27.7497,338.109,3
5367691,-28738820,-46.0842,-37.567,341.08,3
5367692,-28727833,-35.0734,-82.1083,333.565,3
